289.5200
295.9200
306.1600
285.6800
295.9200
295.9200
299.7600
292.0800
298.4800
316.4000
279.2800
278.0000
292.0800
308.7200
283.1200
280.5600
295.9200
310.0000
288.2400
270.3200
286.9600
292.0800
320.2400
303.6000
333.0400
357.3600
395.7600
353.5200
345.8400
325.3600
303.6000
297.2000
286.9600
285.6800
279.2800
284.4000
283.1200
169.2000
123.1200
148.7200
362.4800
947.4400
882.1600
659.4400
503.2800
312.5600
279.2800
271.6000
275.4400
258.8000
265.2000
265.2000
266.4800
266.4800
275.4400
269.0400
265.2000
261.3600
263.9200
247.2800
258.8000
254.9600
263.9200
265.2000
256.2400
280.5600
281.8400
258.8000
285.6800
306.1600
334.3200
338.1600
348.4000
367.6000
334.3200
324.0800
318.9600
326.6400
327.9200
311.2800
304.8800
315.1200
326.6400
307.4400
288.2400
298.4800
293.3600
280.5600
279.2800
281.8400
276.7200
283.1200
284.4000
292.0800
276.7200
274.1600
284.4000
285.6800
295.9200
285.6800
290.8000
310.0000
281.8400
276.7200
290.8000
297.2000
288.2400
294.6400
281.8400
289.5200
302.3200
302.3200
276.7200
293.3600
294.6400
302.3200
329.2000
339.4400
365.0400
368.8800
345.8400
356.0800
292.0800
297.2000
275.4400
289.5200
281.8400
294.6400
284.4000
206.3200
133.3600
89.8400
248.5600
745.2000
1007.6000
727.2800
622.3200
352.2400
269.0400
281.8400
262.6400
257.5200
256.2400
274.1600
271.6000
261.3600
262.6400
281.8400
253.6800
267.7600
269.0400
269.0400
249.8400
257.5200
267.7600
251.1200
262.6400
251.1200
269.0400
270.3200
275.4400
295.9200
308.7200
327.9200
350.9600
344.5600
348.4000
333.0400
315.1200
324.0800
322.8000
325.3600
311.2800
318.9600
318.9600
318.9600
288.2400
288.2400
295.9200
290.8000
290.8000
298.4800
278.0000
278.0000
286.9600
292.0800
271.6000
293.3600
303.6000
281.8400
278.0000
288.2400
293.3600
292.0800
292.0800
307.4400
290.8000
286.9600
289.5200
280.5600
283.1200
289.5200
304.8800
294.6400
288.2400
320.2400
295.9200
286.9600
320.2400
357.3600
357.3600
359.9200
354.8000
343.2800
302.3200
294.6400
286.9600
283.1200
271.6000
294.6400
272.8800
224.2400
141.0400
88.5600
265.2000
790.0000
982.0000
694.0000
592.8800
354.8000
272.8800
290.8000
270.3200
261.3600
274.1600
272.8800
252.4000
263.9200
270.3200
269.0400
256.2400
276.7200
278.0000
256.2400
247.2800
257.5200
274.1600
260.0800
239.6000
271.6000
278.0000
265.2000
275.4400
297.2000
333.0400
325.3600
331.7600
347.1200
377.8400
339.4400
313.8400
325.3600
338.1600
338.1600
302.3200
307.4400
316.4000
310.0000
301.0400
307.4400
313.8400
272.8800
279.2800
281.8400
306.1600
295.9200
269.0400
276.7200
306.1600
304.8800
276.7200
278.0000
301.0400
308.7200
284.4000
288.2400
304.8800
299.7600
281.8400
289.5200
298.4800
303.6000
280.5600
286.9600
297.2000
307.4400
288.2400
279.2800
293.3600
285.6800
290.8000
288.2400
302.3200
336.8800
333.0400
340.7200
368.8800
357.3600
358.6400
313.8400
294.6400
284.4000
308.7200
262.6400
272.8800
278.0000
280.5600
147.4400
106.4800
207.6000
461.0400
989.6800
805.3600
640.2400
468.7200
289.5200
290.8000
280.5600
263.9200
261.3600
261.3600
258.8000
271.6000
276.7200
281.8400
257.5200
261.3600
281.8400
281.8400
249.8400
252.4000
258.8000
293.3600
258.8000
246.0000
269.0400
297.2000
263.9200
290.8000
308.7200
331.7600
366.3200
335.6000
342.0000
372.7200
322.8000
315.1200
318.9600
335.6000
313.8400
304.8800
307.4400
318.9600
326.6400
278.0000
289.5200
301.0400
303.6000
271.6000
276.7200
280.5600
295.9200
286.9600
275.4400
293.3600
295.9200
290.8000
279.2800
292.0800
289.5200
301.0400
284.4000
294.6400
293.3600
289.5200
293.3600
302.3200
290.8000
289.5200
295.9200
298.4800
284.4000
293.3600
288.2400
315.1200
297.2000
284.4000
298.4800
312.5600
326.6400
335.6000
372.7200
374.0000
361.2000
339.4400
315.1200
292.0800
293.3600
280.5600
275.4400
293.3600
278.0000
228.0800
138.4800
105.2000
224.2400
670.9600
1029.360
742.6400
600.5600
400.8800
279.2800
271.6000
257.5200
280.5600
275.4400
272.8800
261.3600
260.0800
271.6000
279.2800
263.9200
265.2000
263.9200
289.5200
246.0000
258.8000
256.2400
247.2800
261.3600
263.9200
260.0800
275.4400
289.5200
307.4400
306.1600
320.2400
336.8800
342.0000
339.4400
334.3200
334.3200
324.0800
334.3200
310.0000
306.1600
313.8400
303.6000
310.0000
302.3200
304.8800
294.6400
299.7600
304.8800
275.4400
275.4400
284.4000
281.8400
283.1200
293.3600
298.4800
280.5600
281.8400
298.4800
286.9600
288.2400
292.0800
280.5600
293.3600
304.8800
288.2400
272.8800
293.3600
289.5200
280.5600
302.3200
285.6800
266.4800
295.9200
301.0400
298.4800
312.5600
326.6400
357.3600
381.6800
345.8400
343.2800
321.5200
297.2000
285.6800
297.2000
265.2000
281.8400
270.3200
257.5200
132.0800
111.6000
201.2000
527.6000
1035.760
809.2000
638.9600
421.3600
271.6000
276.7200
262.6400
272.8800
262.6400
269.0400
271.6000
283.1200
262.6400
275.4400
261.3600
261.3600
248.5600
270.3200
267.7600
256.2400
248.5600
269.0400
256.2400
272.8800
249.8400
260.0800
269.0400
286.9600
304.8800
306.1600
334.3200
356.0800
320.2400
327.9200
327.9200
321.5200
320.2400
325.3600
313.8400
283.1200
286.9600
301.0400
295.9200
280.5600
279.2800
261.3600
313.8400
317.6800
361.2000
320.2400
352.2400
276.7200
294.6400
297.2000
308.7200
284.4000
285.6800
294.6400
302.3200
297.2000
288.2400
322.8000
278.0000
293.3600
295.9200
290.8000
290.8000
284.4000
292.0800
308.7200
303.6000
283.1200
320.2400
330.4800
345.8400
377.8400
384.2400
343.2800
356.0800
294.6400
283.1200
253.6800
280.5600
274.1600
267.7600
239.6000
221.6800
128.2400
98.8000
231.9200
688.8800
997.3600
756.7200
621.0400
404.7200
320.2400
348.4000
289.5200
301.0400
316.4000
283.1200
290.8000
279.2800
295.9200
225.5200
270.3200
246.0000
257.5200
187.1200
216.5600
237.0400
240.8800
219.1200
210.1600
234.4800
253.6800
237.0400
237.0400
256.2400
276.7200
289.5200
297.2000
310.0000
325.3600
357.3600
320.2400
329.2000
315.1200
335.6000
315.1200
338.1600
293.3600
338.1600
284.4000
339.4400
285.6800
290.8000
267.7600
289.5200
283.1200
294.6400
290.8000
311.2800
333.0400
285.6800
306.1600
301.0400
312.5600
292.0800
281.8400
285.6800
306.1600
308.7200
285.6800
311.2800
278.0000
288.2400
290.8000
303.6000
292.0800
302.3200
292.0800
295.9200
286.9600
315.1200
336.8800
340.7200
357.3600
380.4000
367.6000
366.3200
340.7200
321.5200
310.0000
329.2000
340.7200
302.3200
299.7600
298.4800
203.7600
92.4000
220.4000
532.7200
992.2400
759.2800
647.9200
398.3200
240.8800
242.1600
265.2000
228.0800
206.3200
234.4800
243.4400
263.9200
240.8800
294.6400
295.9200
315.1200
293.3600
299.7600
276.7200
276.7200
257.5200
271.6000
261.3600
279.2800
283.1200
288.2400
284.4000
272.8800
285.6800
310.0000
316.4000
335.6000
333.0400
344.5600
333.0400
330.4800
308.7200
322.8000
318.9600
322.8000
326.6400
320.2400
304.8800
321.5200
292.0800
279.2800
261.3600
272.8800
266.4800
234.4800
221.6800
220.4000
261.3600
263.9200
278.0000
276.7200
289.5200
289.5200
284.4000
292.0800
288.2400
279.2800
292.0800
285.6800
295.9200
298.4800
286.9600
297.2000
294.6400
298.4800
308.7200
303.6000
293.3600
301.0400
345.8400
336.8800
353.5200
386.8000
391.9200
361.2000
384.2400
352.2400
343.2800
362.4800
325.3600
256.2400
281.8400
279.2800
182.0000
112.8800
118.0000
308.7200
879.6000
907.7600
665.8400
537.8400
322.8000
304.8800
261.3600
258.8000
267.7600
272.8800
269.0400
270.3200
258.8000
269.0400
280.5600
289.5200
246.0000
254.9600
274.1600
262.6400
258.8000
258.8000
256.2400
260.0800
269.0400
263.9200
263.9200
276.7200
299.7600
306.1600
321.5200
335.6000
340.7200
339.4400
329.2000
325.3600
317.6800
311.2800
318.9600
325.3600
304.8800
298.4800
299.7600
310.0000
299.7600
288.2400
290.8000
294.6400
281.8400
275.4400
285.6800
292.0800
274.1600
283.1200
294.6400
299.7600
283.1200
286.9600
280.5600
298.4800
298.4800
299.7600
292.0800
306.1600
275.4400
272.8800
278.0000
303.6000
275.4400
280.5600
263.9200
188.4000
220.4000
217.8400
284.4000
334.3200
345.8400
343.2800
397.0400
390.6400
352.2400
335.6000
311.2800
294.6400
299.7600
293.3600
285.6800
307.4400
302.3200
201.2000
124.4000
135.9200
317.6800
878.3200
944.8800
690.1600
566.0000
333.0400
298.4800
285.6800
293.3600
284.4000
281.8400
297.2000
274.1600
283.1200
285.6800
226.8000
247.2800
249.8400
258.8000
281.8400
251.1200
242.1600
239.6000
258.8000
240.8800
269.0400
243.4400
240.8800
278.0000
297.2000
299.7600
321.5200
354.8000
375.2800
335.6000
330.4800
340.7200
334.3200
318.9600
299.7600
310.0000
324.0800
302.3200
279.2800
313.8400
299.7600
276.7200
272.8800
292.0800
284.4000
281.8400
281.8400
288.2400
271.6000
279.2800
289.5200
286.9600
269.0400
292.0800
284.4000
301.0400
295.9200
280.5600
288.2400
297.2000
285.6800
289.5200
276.7200
289.5200
299.7600
307.4400
278.0000
285.6800
324.0800
335.6000
329.2000
371.4400
367.6000
344.5600
336.8800
310.0000
286.9600
276.7200
292.0800
289.5200
271.6000
269.0400
175.6000
102.6400
147.4400
358.6400
983.2800
898.8000
682.4800
507.1200
285.6800
284.4000
276.7200
275.4400
238.3200
208.8800
254.9600
261.3600
246.0000
249.8400
256.2400
272.8800
270.3200
271.6000
269.0400
266.4800
247.2800
269.0400
253.6800
254.9600
253.6800
257.5200
249.8400
286.9600
285.6800
310.0000
330.4800
324.0800
318.9600
329.2000
334.3200
324.0800
321.5200
321.5200
318.9600
299.7600
301.0400
318.9600
284.4000
302.3200
297.2000
297.2000
297.2000
293.3600
295.9200
317.6800
285.6800
292.0800
285.6800
283.1200
283.1200
289.5200
293.3600
289.5200
299.7600
280.5600
280.5600
289.5200
294.6400
275.4400
302.3200
275.4400
301.0400
302.3200
297.2000
299.7600
343.2800
353.5200
359.9200
356.0800
359.9200
353.5200
293.3600
275.4400
307.4400
294.6400
279.2800
261.3600
275.4400
180.7200
118.0000
144.8800
354.8000
989.6800
887.2800
645.3600
541.6800
303.6000
280.5600
278.0000
279.2800
285.6800
249.8400
248.5600
288.2400
248.5600
253.6800
260.0800
261.3600
238.3200
257.5200
261.3600
269.0400
230.6400
240.8800
258.8000
246.0000
243.4400
265.2000
262.6400
281.8400
272.8800
293.3600
310.0000
322.8000
318.9600
321.5200
310.0000
304.8800
302.3200
313.8400
292.0800
317.6800
304.8800
301.0400
304.8800
304.8800
294.6400
274.1600
278.0000
286.9600
267.7600
290.8000
279.2800
301.0400
289.5200
251.1200
279.2800
266.4800
278.0000
290.8000
301.0400
320.2400
325.3600
316.4000
324.0800
320.2400
326.6400
327.9200
329.2000
308.7200
327.9200
343.2800
393.2000
391.9200
379.1200
354.8000
367.6000
312.5600
274.1600
262.6400
294.6400
274.1600
285.6800
269.0400
217.8400
125.6800
100.0800
280.5600
819.4400
980.7200
700.4000
589.0400
366.3200
276.7200
280.5600
274.1600
278.0000
272.8800
280.5600
270.3200
265.2000
279.2800
279.2800
257.5200
271.6000
269.0400
254.9600
254.9600
258.8000
260.0800
244.7200
247.2800
266.4800
260.0800
254.9600
281.8400
283.1200
307.4400
313.8400
331.7600
329.2000
334.3200
331.7600
320.2400
307.4400
320.2400
312.5600
306.1600
301.0400
303.6000
292.0800
304.8800
293.3600
289.5200
286.9600
274.1600
272.8800
269.0400
286.9600
276.7200
286.9600
283.1200
286.9600
266.4800
272.8800
275.4400
286.9600
285.6800
297.2000
292.0800
295.9200
293.3600
285.6800
294.6400
279.2800
279.2800
302.3200
320.2400
338.1600
342.0000
366.3200
361.2000
331.7600
315.1200
310.0000
278.0000
280.5600
281.8400
278.0000
278.0000
276.7200
155.1200
92.4000
192.2400
440.5600
974.3200
824.5600
633.8400
478.9600
286.9600
270.3200
257.5200
267.7600
257.5200
266.4800
257.5200
260.0800
253.6800
262.6400
263.9200
263.9200
263.9200
270.3200
254.9600
280.5600
252.4000
272.8800
244.7200
269.0400
249.8400
270.3200
263.9200
299.7600
283.1200
316.4000
326.6400
348.4000
343.2800
349.6800
344.5600
371.4400
344.5600
325.3600
335.6000
297.2000
303.6000
290.8000
301.0400
289.5200
307.4400
270.3200
288.2400
281.8400
292.0800
281.8400
285.6800
267.7600
272.8800
284.4000
290.8000
260.0800
280.5600
284.4000
301.0400
274.1600
284.4000
276.7200
308.7200
276.7200
281.8400
283.1200
316.4000
298.4800
298.4800
315.1200
342.0000
397.0400
359.9200
336.8800
339.4400
322.8000
306.1600
289.5200
288.2400
292.0800
292.0800
288.2400
205.0400
129.5200
91.1200
280.5600
772.0800
983.2800
679.9200
585.2000
354.8000
284.4000
290.8000
267.7600
265.2000
258.8000
262.6400
263.9200
275.4400
261.3600
283.1200
269.0400
283.1200
272.8800
274.1600
258.8000
262.6400
267.7600
276.7200
260.0800
271.6000
272.8800
286.9600
299.7600
343.2800
358.6400
363.7600
354.8000
359.9200
356.0800
342.0000
331.7600
321.5200
318.9600
304.8800
330.4800
311.2800
302.3200
307.4400
322.8000
303.6000
306.1600
302.3200
316.4000
288.2400
295.9200
293.3600
299.7600
292.0800
292.0800
303.6000
289.5200
294.6400
237.0400
212.7200
215.2800
339.4400
359.9200
379.1200
304.8800
146.1600
91.1200
13.0400
-13.8400
125.6800
230.6400
297.2000
312.5600
320.2400
338.1600
303.6000
322.8000
295.9200
312.5600
307.4400
335.6000
334.3200
349.6800
345.8400
374.0000
361.2000
390.6400
391.9200
404.7200
397.0400
416.2400
379.1200
408.5600
371.4400
404.7200
359.9200
394.4800
334.3200
350.9600
343.2800
334.3200
289.5200
335.6000
288.2400
321.5200
310.0000
306.1600
278.0000
286.9600
258.8000
310.0000
262.6400
304.8800
262.6400
318.9600
265.2000
308.7200
266.4800
285.6800
258.8000
275.4400
365.0400
283.1200
308.7200
266.4800
376.5600
350.9600
294.6400
294.6400
324.0800
290.8000
303.6000
283.1200
299.7600
281.8400
310.0000
285.6800
288.2400
283.1200
301.0400
276.7200
293.3600
286.9600
281.8400
281.8400
311.2800
289.5200
286.9600
285.6800
311.2800
275.4400
281.8400
284.4000
294.6400
307.4400
278.0000
294.6400
334.3200
339.4400
336.8800
365.0400
362.4800
357.3600
316.4000
293.3600
292.0800
288.2400
269.0400
276.7200
278.0000
225.5200
126.9600
103.9200
274.1600
810.4800
961.5200
690.1600
587.7600
359.9200
288.2400
256.2400
258.8000
266.4800
256.2400
263.9200
261.3600
279.2800
262.6400
262.6400
280.5600
258.8000
249.8400
266.4800
254.9600
263.9200
260.0800
271.6000
258.8000
261.3600
275.4400
272.8800
288.2400
299.7600
321.5200
331.7600
353.5200
362.4800
353.5200
367.6000
344.5600
331.7600
330.4800
322.8000
317.6800
310.0000
313.8400
299.7600
313.8400
304.8800
290.8000
278.0000
280.5600
292.0800
267.7600
267.7600
272.8800
285.6800
252.4000
263.9200
278.0000
288.2400
271.6000
302.3200
283.1200
281.8400
285.6800
288.2400
276.7200
289.5200
293.3600
310.0000
336.8800
350.9600
368.8800
366.3200
344.5600
334.3200
311.2800
299.7600
286.9600
292.0800
281.8400
293.3600
278.0000
228.0800
130.8000
87.2800
251.1200
719.6000
998.6400
702.9600
603.1200
372.7200
286.9600
283.1200
258.8000
274.1600
265.2000
272.8800
263.9200
271.6000
266.4800
283.1200
288.2400
254.9600
254.9600
279.2800
266.4800
253.6800
256.2400
265.2000
263.9200
262.6400
265.2000
283.1200
269.0400
284.4000
301.0400
327.9200
320.2400
329.2000
335.6000
325.3600
320.2400
326.6400
315.1200
317.6800
310.0000
298.4800
310.0000
297.2000
288.2400
306.1600
294.6400
283.1200
286.9600
289.5200
292.0800
290.8000
301.0400
289.5200
280.5600
288.2400
283.1200
288.2400
295.9200
292.0800
303.6000
288.2400
286.9600
295.9200
312.5600
285.6800
286.9600
299.7600
327.9200
318.9600
324.0800
365.0400
391.9200
348.4000
333.0400
312.5600
306.1600
294.6400
279.2800
272.8800
295.9200
257.5200
220.4000
130.8000
98.8000
253.6800
681.2000
1012.7200
709.3600
598.0000
397.0400
283.1200
280.5600
257.5200
280.5600
256.2400
260.0800
262.6400
274.1600
276.7200
266.4800
274.1600
280.5600
247.2800
265.2000
278.0000
274.1600
244.7200
258.8000
270.3200
274.1600
263.9200
269.0400
267.7600
303.6000
310.0000
321.5200
343.2800
348.4000
343.2800
327.9200
327.9200
318.9600
315.1200
308.7200
310.0000
306.1600
304.8800
292.0800
304.8800
288.2400
285.6800
289.5200
283.1200
290.8000
288.2400
263.9200
275.4400
286.9600
288.2400
272.8800
283.1200
286.9600
294.6400
281.8400
293.3600
279.2800
286.9600
281.8400
297.2000
294.6400
289.5200
298.4800
338.1600
317.6800
327.9200
363.7600
362.4800
352.2400
349.6800
338.1600
310.0000
289.5200
294.6400
275.4400
276.7200
270.3200
219.1200
130.8000
97.5200
251.1200
764.4000
985.8400
704.2400
581.3600
353.5200
275.4400
283.1200
284.4000
260.0800
271.6000
275.4400
284.4000
260.0800
266.4800
274.1600
274.1600
270.3200
275.4400
260.0800
257.5200
267.7600
258.8000
275.4400
267.7600
261.3600
254.9600
266.4800
274.1600
297.2000
302.3200
313.8400
322.8000
349.6800
322.8000
321.5200
333.0400
324.0800
302.3200
308.7200
301.0400
310.0000
293.3600
299.7600
295.9200
275.4400
283.1200
292.0800
288.2400
261.3600
270.3200
285.6800
275.4400
263.9200
275.4400
286.9600
292.0800
271.6000
269.0400
266.4800
275.4400
258.8000
269.0400
262.6400
285.6800
263.9200
333.0400
313.8400
321.5200
335.6000
350.9600
340.7200
354.8000
301.0400
302.3200
288.2400
301.0400
279.2800
284.4000
271.6000
222.9600
151.2800
69.3600
220.4000
726.0000
989.6800
726.0000
554.4800
363.7600
404.7200
394.4800
349.6800
303.6000
318.9600
310.0000
304.8800
237.0400
247.2800
243.4400
270.3200
266.4800
257.5200
254.9600
251.1200
215.2800
254.9600
233.2000
221.6800
225.5200
257.5200
261.3600
306.1600
358.6400
334.3200
331.7600
327.9200
335.6000
338.1600
317.6800
307.4400
299.7600
336.8800
377.8400
334.3200
293.3600
307.4400
302.3200
327.9200
313.8400
295.9200
298.4800
299.7600
262.6400
270.3200
293.3600
293.3600
294.6400
276.7200
267.7600
252.4000
257.5200
228.0800
270.3200
289.5200
288.2400
271.6000
303.6000
315.1200
303.6000
303.6000
330.4800
349.6800
389.3600
335.6000
336.8800
329.2000
330.4800
253.6800
278.0000
279.2800
293.3600
256.2400
253.6800
147.4400
110.3200
221.6800
508.4000
1011.4400
798.9600
640.2400
429.0400
276.7200
292.0800
263.9200
261.3600
278.0000
271.6000
244.7200
267.7600
270.3200
271.6000
257.5200
272.8800
266.4800
262.6400
263.9200
285.6800
244.7200
246.0000
265.2000
254.9600
258.8000
258.8000
270.3200
306.1600
303.6000
298.4800
316.4000
333.0400
334.3200
327.9200
318.9600
317.6800
313.8400
315.1200
330.4800
290.8000
306.1600
356.0800
307.4400
292.0800
308.7200
301.0400
307.4400
280.5600
275.4400
310.0000
279.2800
270.3200
288.2400
279.2800
279.2800
280.5600
281.8400
270.3200
267.7600
261.3600
290.8000
262.6400
270.3200
290.8000
286.9600
317.6800
327.9200
363.7600
362.4800
354.8000
344.5600
348.4000
335.6000
263.9200
271.6000
274.1600
288.2400
288.2400
246.0000
174.3200
147.4400
157.6800
310.0000
921.8400
891.1200
592.8800
503.2800
311.2800
265.2000
235.7600
260.0800
269.0400
285.6800
298.4800
306.1600
290.8000
292.0800
288.2400
258.8000
267.7600
283.1200
262.6400
260.0800
266.4800
262.6400
266.4800
271.6000
269.0400
279.2800
290.8000
283.1200
290.8000
321.5200
310.0000
317.6800
322.8000
324.0800
322.8000
316.4000
327.9200
313.8400
290.8000
289.5200
290.8000
308.7200
292.0800
290.8000
295.9200
303.6000
302.3200
283.1200
279.2800
293.3600
288.2400
285.6800
297.2000
299.7600
297.2000
310.0000
306.1600
312.5600
303.6000
281.8400
288.2400
299.7600
311.2800
318.9600
320.2400
324.0800
353.5200
342.0000
343.2800
366.3200
363.7600
345.8400
334.3200
299.7600
284.4000
294.6400
270.3200
274.1600
279.2800
279.2800
157.6800
107.7600
160.2400
370.1600
951.2800
857.8400
635.1200
487.9200
303.6000
295.9200
263.9200
266.4800
262.6400
280.5600
263.9200
266.4800
271.6000
295.9200
272.8800
278.0000
272.8800
269.0400
283.1200
280.5600
256.2400
270.3200
263.9200
283.1200
278.0000
286.9600
298.4800
313.8400
320.2400
353.5200
349.6800
334.3200
329.2000
322.8000
306.1600
281.8400
281.8400
289.5200
306.1600
311.2800
302.3200
303.6000
298.4800
278.0000
290.8000
269.0400
271.6000
269.0400
270.3200
269.0400
272.8800
283.1200
272.8800
269.0400
289.5200
290.8000
293.3600
288.2400
297.2000
288.2400
289.5200
283.1200
275.4400
266.4800
285.6800
285.6800
293.3600
302.3200
330.4800
356.0800
350.9600
347.1200
349.6800
330.4800
303.6000
302.3200
293.3600
230.6400
243.4400
297.2000
285.6800
160.2400
115.4400
193.5200
444.4000
983.2800
819.4400
628.7200
445.6800
292.0800
286.9600
269.0400
271.6000
267.7600
274.1600
256.2400
288.2400
278.0000
286.9600
281.8400
295.9200
257.5200
265.2000
263.9200
260.0800
274.1600
263.9200
261.3600
270.3200
275.4400
272.8800
246.0000
276.7200
292.0800
327.9200
330.4800
336.8800
338.1600
336.8800
331.7600
327.9200
325.3600
307.4400
312.5600
315.1200
312.5600
301.0400
303.6000
286.9600
286.9600
297.2000
279.2800
284.4000
263.9200
275.4400
274.1600
279.2800
285.6800
298.4800
286.9600
304.8800
311.2800
316.4000
326.6400
310.0000
298.4800
312.5600
290.8000
285.6800
272.8800
325.3600
325.3600
342.0000
348.4000
377.8400
353.5200
347.1200
324.0800
318.9600
279.2800
289.5200
284.4000
284.4000
274.1600
276.7200
151.2800
96.2400
182.0000
418.8000
987.1200
839.9200
641.5200
470.0000
271.6000
275.4400
261.3600
262.6400
258.8000
261.3600
265.2000
266.4800
269.0400
267.7600
262.6400
263.9200
261.3600
276.7200
261.3600
285.6800
261.3600
247.2800
269.0400
260.0800
269.0400
269.0400
263.9200
302.3200
303.6000
322.8000
318.9600
344.5600
325.3600
344.5600
335.6000
342.0000
308.7200
335.6000
317.6800
340.7200
306.1600
315.1200
318.9600
299.7600
310.0000
308.7200
301.0400
285.6800
281.8400
278.0000
290.8000
278.0000
301.0400
288.2400
290.8000
286.9600
293.3600
292.0800
306.1600
272.8800
304.8800
297.2000
284.4000
271.6000
310.0000
317.6800
329.2000
320.2400
374.0000
381.6800
334.3200
292.0800
307.4400
263.9200
312.5600
270.3200
272.8800
252.4000
269.0400
197.3600
137.2000
153.8400
281.8400
859.1200
952.5600
713.2000
573.6800
336.8800
292.0800
298.4800
289.5200
257.5200
267.7600
288.2400
262.6400
269.0400
274.1600
311.2800
254.9600
249.8400
261.3600
283.1200
234.4800
230.6400
239.6000
279.2800
252.4000
240.8800
261.3600
306.1600
276.7200
275.4400
308.7200
329.2000
348.4000
326.6400
333.0400
330.4800
325.3600
293.3600
297.2000
303.6000
294.6400
301.0400
298.4800
299.7600
304.8800
292.0800
279.2800
303.6000
275.4400
279.2800
266.4800
274.1600
266.4800
263.9200
257.5200
269.0400
266.4800
274.1600
257.5200
276.7200
275.4400
298.4800
265.2000
298.4800
283.1200
279.2800
290.8000
306.1600
298.4800
342.0000
377.8400
418.8000
381.6800
370.1600
339.4400
304.8800
310.0000
307.4400
295.9200
281.8400
295.9200
271.6000
138.4800
96.2400
221.6800
516.0800
1011.4400
778.4800
651.7600
448.2400
286.9600
280.5600
274.1600
269.0400
257.5200
270.3200
261.3600
265.2000
258.8000
276.7200
261.3600
261.3600
267.7600
266.4800
261.3600
263.9200
260.0800
261.3600
253.6800
275.4400
266.4800
265.2000
267.7600
286.9600
310.0000
317.6800
335.6000
359.9200
329.2000
345.8400
325.3600
325.3600
324.0800
313.8400
306.1600
308.7200
316.4000
299.7600
299.7600
306.1600
327.9200
242.1600
249.8400
275.4400
269.0400
274.1600
281.8400
276.7200
293.3600
299.7600
310.0000
298.4800
308.7200
312.5600
299.7600
302.3200
316.4000
304.8800
288.2400
306.1600
290.8000
288.2400
299.7600
307.4400
330.4800
330.4800
357.3600
365.0400
349.6800
334.3200
304.8800
285.6800
283.1200
283.1200
258.8000
265.2000
265.2000
220.4000
120.5600
101.3600
260.0800
781.0400
975.6000
682.4800
563.4400
356.0800
265.2000
279.2800
263.9200
270.3200
261.3600
274.1600
278.0000
279.2800
280.5600
294.6400
271.6000
254.9600
266.4800
272.8800
271.6000
261.3600
262.6400
253.6800
239.6000
257.5200
265.2000
274.1600
292.0800
306.1600
306.1600
342.0000
352.2400
334.3200
336.8800
335.6000
322.8000
306.1600
311.2800
316.4000
289.5200
302.3200
313.8400
299.7600
285.6800
288.2400
290.8000
298.4800
272.8800
272.8800
285.6800
278.0000
279.2800
281.8400
279.2800
266.4800
266.4800
292.0800
279.2800
280.5600
293.3600
298.4800
281.8400
310.0000
265.2000
286.9600
284.4000
302.3200
320.2400
335.6000
380.4000
377.8400
375.2800
345.8400
333.0400
322.8000
278.0000
285.6800
276.7200
284.4000
321.5200
286.9600
156.4000
111.6000
166.6400
371.4400
965.3600
891.1200
681.2000
528.8800
278.0000
279.2800
286.9600
276.7200
274.1600
274.1600
274.1600
297.2000
272.8800
263.9200
276.7200
260.0800
275.4400
266.4800
275.4400
267.7600
276.7200
293.3600
248.5600
252.4000
271.6000
256.2400
275.4400
280.5600
318.9600
356.0800
356.0800
361.2000
352.2400
357.3600
329.2000
322.8000
336.8800
345.8400
315.1200
280.5600
244.7200
206.3200
86.0000
57.8400
121.8400
239.6000
274.1600
338.1600
299.7600
152.5600
119.2800
193.5200
271.6000
274.1600
292.0800
315.1200
339.4400
339.4400
334.3200
329.2000
343.2800
358.6400
331.7600
348.4000
372.7200
384.2400
397.0400
398.3200
400.8800
417.5200
406.0000
398.3200
365.0400
366.3200
344.5600
330.4800
339.4400
333.0400
329.2000
312.5600
320.2400
310.0000
315.1200
311.2800
307.4400
313.8400
320.2400
297.2000
302.3200
303.6000
303.6000
306.1600
310.0000
312.5600
310.0000
294.6400
312.5600
293.3600
285.6800
289.5200
306.1600
294.6400
304.8800
286.9600
295.9200
301.0400
292.0800
310.0000
308.7200
310.0000
286.9600
303.6000
311.2800
304.8800
306.1600
320.2400
320.2400
322.8000
301.0400
295.9200
297.2000
294.6400
301.0400
303.6000
302.3200
312.5600
289.5200
286.9600
281.8400
294.6400
285.6800
297.2000
306.1600
333.0400
275.4400
297.2000
292.0800
293.3600
297.2000
292.0800
297.2000
313.8400
316.4000
303.6000
286.9600
290.8000
295.9200
297.2000
290.8000
299.7600
292.0800
270.3200
295.9200
312.5600
317.6800
349.6800
371.4400
376.5600
353.5200
333.0400
310.0000
280.5600
274.1600
288.2400
266.4800
276.7200
162.8000
130.8000
176.8800
444.4000
979.4400
847.6000
637.6800
480.2400
307.4400
303.6000
269.0400
280.5600
262.6400
286.9600
280.5600
286.9600
288.2400
272.8800
263.9200
269.0400
261.3600
253.6800
266.4800
252.4000
270.3200
279.2800
285.6800
272.8800
284.4000
297.2000
311.2800
286.9600
285.6800
333.0400
357.3600
368.8800
380.4000
313.8400
324.0800
326.6400
321.5200
312.5600
312.5600
318.9600
334.3200
311.2800
312.5600
315.1200
286.9600
275.4400
301.0400
240.8800
252.4000
231.9200
235.7600
197.3600
249.8400
226.8000
312.5600
267.7600
306.1600
274.1600
330.4800
251.1200
265.2000
202.4800
278.0000
308.7200
293.3600
315.1200
299.7600
358.6400
330.4800
386.8000
348.4000
386.8000
336.8800
326.6400
307.4400
297.2000
288.2400
290.8000
285.6800
276.7200
211.4400
137.2000
100.0800
267.7600
756.7200
971.7600
696.5600
560.8800
361.2000
270.3200
278.0000
243.4400
285.6800
308.7200
254.9600
292.0800
278.0000
242.1600
243.4400
271.6000
247.2800
286.9600
243.4400
271.6000
243.4400
252.4000
284.4000
257.5200
276.7200
262.6400
289.5200
276.7200
290.8000
302.3200
320.2400
343.2800
335.6000
318.9600
344.5600
313.8400
311.2800
301.0400
308.7200
303.6000
301.0400
304.8800
297.2000
289.5200
294.6400
285.6800
302.3200
284.4000
274.1600
294.6400
275.4400
279.2800
289.5200
279.2800
292.0800
293.3600
292.0800
298.4800
293.3600
270.3200
293.3600
285.6800
299.7600
290.8000
290.8000
276.7200
315.1200
313.8400
324.0800
366.3200
361.2000
352.2400
344.5600
327.9200
284.4000
283.1200
289.5200
275.4400
269.0400
269.0400
256.2400
123.1200
77.0400
220.4000
596.7200
1017.8400
772.0800
609.5200
379.1200
280.5600
290.8000
252.4000
266.4800
253.6800
272.8800
270.3200
271.6000
257.5200
283.1200
270.3200
260.0800
260.0800
265.2000
265.2000
265.2000
251.1200
261.3600
266.4800
269.0400
253.6800
261.3600
271.6000
293.3600
315.1200
317.6800
324.0800
329.2000
345.8400
330.4800
316.4000
316.4000
317.6800
306.1600
304.8800
324.0800
311.2800
301.0400
281.8400
286.9600
293.3600
284.4000
281.8400
288.2400
265.2000
281.8400
281.8400
286.9600
285.6800
270.3200
278.0000
293.3600
281.8400
288.2400
293.3600
302.3200
297.2000
290.8000
276.7200
293.3600
318.9600
334.3200
350.9600
370.1600
357.3600
345.8400
334.3200
338.1600
267.7600
278.0000
274.1600
290.8000
278.0000
265.2000
156.4000
101.3600
182.0000
391.9200
994.8000
864.2400
670.9600
470.0000
288.2400
288.2400
258.8000
288.2400
256.2400
267.7600
262.6400
262.6400
257.5200
274.1600
271.6000
285.6800
246.0000
275.4400
266.4800
254.9600
251.1200
261.3600
267.7600
262.6400
269.0400
257.5200
267.7600
275.4400
289.5200
320.2400
325.3600
316.4000
368.8800
312.5600
313.8400
320.2400
317.6800
310.0000
307.4400
317.6800
311.2800
308.7200
289.5200
286.9600
294.6400
304.8800
276.7200
279.2800
276.7200
289.5200
297.2000
286.9600
275.4400
295.9200
279.2800
284.4000
284.4000
294.6400
297.2000
310.0000
281.8400
286.9600
286.9600
294.6400
320.2400
324.0800
345.8400
376.5600
398.3200
329.2000
325.3600
306.1600
283.1200
293.3600
292.0800
286.9600
290.8000
271.6000
174.3200
119.2800
139.7600
339.4400
923.1200
911.6000
669.6800
536.5600
324.0800
289.5200
262.6400
285.6800
270.3200
262.6400
274.1600
274.1600
266.4800
281.8400
272.8800
263.9200
263.9200
261.3600
278.0000
260.0800
256.2400
271.6000
256.2400
252.4000
257.5200
265.2000
279.2800
279.2800
310.0000
329.2000
308.7200
327.9200
335.6000
354.8000
316.4000
310.0000
324.0800
326.6400
303.6000
295.9200
299.7600
322.8000
294.6400
281.8400
292.0800
288.2400
286.9600
276.7200
299.7600
267.7600
266.4800
304.8800
276.7200
272.8800
274.1600
294.6400
279.2800
281.8400
303.6000
302.3200
269.0400
283.1200
310.0000
289.5200
275.4400
306.1600
342.0000
327.9200
336.8800
376.5600
368.8800
345.8400
315.1200
290.8000
278.0000
293.3600
283.1200
284.4000
272.8800
274.1600
142.3200
89.8400
202.4800
487.9200
993.5200
795.1200
645.3600
462.3200
285.6800
299.7600
265.2000
262.6400
254.9600
266.4800
260.0800
271.6000
281.8400
279.2800
262.6400
279.2800
269.0400
254.9600
258.8000
269.0400
257.5200
279.2800
269.0400
252.4000
260.0800
280.5600
279.2800
285.6800
322.8000
320.2400
325.3600
347.1200
348.4000
334.3200
325.3600
338.1600
325.3600
308.7200
308.7200
304.8800
299.7600
304.8800
304.8800
297.2000
286.9600
294.6400
283.1200
290.8000
278.0000
281.8400
280.5600
278.0000
285.6800
285.6800
292.0800
284.4000
294.6400
279.2800
272.8800
285.6800
302.3200
288.2400
286.9600
307.4400
285.6800
280.5600
294.6400
318.9600
327.9200
340.7200
379.1200
372.7200
344.5600
334.3200
313.8400
301.0400
297.2000
280.5600
266.4800
275.4400
275.4400
198.6400
133.3600
112.8800
294.6400
837.3600
952.5600
690.1600
553.2000
335.6000
272.8800
278.0000
280.5600
261.3600
260.0800
272.8800
262.6400
263.9200
258.8000
281.8400
270.3200
265.2000
269.0400
261.3600
261.3600
246.0000
257.5200
261.3600
253.6800
270.3200
275.4400
263.9200
306.1600
293.3600
299.7600
322.8000
339.4400
336.8800
331.7600
327.9200
331.7600
331.7600
299.7600
301.0400
292.0800
303.6000
293.3600
292.0800
297.2000
293.3600
297.2000
292.0800
272.8800
271.6000
284.4000
269.0400
278.0000
270.3200
275.4400
290.8000
285.6800
279.2800
294.6400
290.8000
280.5600
275.4400
285.6800
285.6800
297.2000
299.7600
290.8000
317.6800
326.6400
342.0000
386.8000
356.0800
347.1200
329.2000
306.1600
276.7200
292.0800
272.8800
279.2800
281.8400
262.6400
153.8400
103.9200
164.0800
423.9200
989.6800
839.9200
676.0800
459.7600
278.0000
288.2400
253.6800
276.7200
269.0400
275.4400
258.8000
261.3600
274.1600
278.0000
263.9200
272.8800
258.8000
266.4800
249.8400
267.7600
262.6400
258.8000
247.2800
269.0400
260.0800
263.9200
270.3200
297.2000
313.8400
299.7600
331.7600
322.8000
318.9600
342.0000
336.8800
315.1200
289.5200
306.1600
308.7200
310.0000
302.3200
297.2000
297.2000
290.8000
290.8000
293.3600
281.8400
275.4400
285.6800
284.4000
267.7600
283.1200
294.6400
284.4000
269.0400
281.8400
310.0000
276.7200
278.0000
306.1600
279.2800
280.5600
283.1200
307.4400
288.2400
297.2000
310.0000
345.8400
338.1600
363.7600
353.5200
357.3600
320.2400
294.6400
285.6800
292.0800
266.4800
281.8400
278.0000
258.8000
133.3600
75.7600
243.4400
566.0000
1008.8800
772.0800
651.7600
414.9600
271.6000
285.6800
257.5200
276.7200
271.6000
271.6000
269.0400
283.1200
263.9200
265.2000
258.8000
272.8800
258.8000
274.1600
275.4400
266.4800
252.4000
283.1200
240.8800
257.5200
257.5200
285.6800
299.7600
283.1200
297.2000
331.7600
350.9600
310.0000
317.6800
331.7600
347.1200
311.2800
303.6000
310.0000
317.6800
313.8400
293.3600
290.8000
308.7200
315.1200
274.1600
275.4400
279.2800
294.6400
283.1200
278.0000
279.2800
304.8800
267.7600
279.2800
283.1200
294.6400
281.8400
283.1200
302.3200
285.6800
302.3200
270.3200
271.6000
298.4800
301.0400
298.4800
321.5200
333.0400
353.5200
361.2000
359.9200
357.3600
315.1200
289.5200
285.6800
303.6000
276.7200
286.9600
263.9200
238.3200
141.0400
98.8000
242.1600
653.0400
1003.7600
727.2800
615.9200
422.6400
269.0400
285.6800
275.4400
265.2000
266.4800
266.4800
274.1600
281.8400
260.0800
280.5600
269.0400
270.3200
256.2400
271.6000
258.8000
265.2000
272.8800
263.9200
256.2400
263.9200
270.3200
279.2800
275.4400
308.7200
297.2000
316.4000
347.1200
347.1200
331.7600
329.2000
345.8400
312.5600
317.6800
302.3200
295.9200
311.2800
310.0000
294.6400
290.8000
303.6000
294.6400
280.5600
288.2400
279.2800
276.7200
286.9600
285.6800
294.6400
278.0000
286.9600
304.8800
267.7600
284.4000
283.1200
293.3600
288.2400
288.2400
286.9600
293.3600
288.2400
292.0800
311.2800
310.0000
311.2800
327.9200
370.1600
376.5600
348.4000
340.7200
320.2400
322.8000
276.7200
284.4000
288.2400
274.1600
266.4800
253.6800
160.2400
103.9200
214.0000
573.6800
1002.4800
741.3600
613.3600
441.8400
289.5200
299.7600
257.5200
275.4400
274.1600
260.0800
260.0800
272.8800
274.1600
286.9600
256.2400
265.2000
263.9200
265.2000
283.1200
258.8000
249.8400
269.0400
256.2400
261.3600
267.7600
272.8800
276.7200
299.7600
315.1200
318.9600
331.7600
359.9200
326.6400
329.2000
339.4400
330.4800
301.0400
306.1600
320.2400
315.1200
293.3600
297.2000
304.8800
288.2400
280.5600
285.6800
290.8000
281.8400
274.1600
279.2800
315.1200
271.6000
269.0400
281.8400
290.8000
280.5600
284.4000
293.3600
295.9200
288.2400
295.9200
292.0800
306.1600
294.6400
288.2400
281.8400
294.6400
331.7600
324.0800
340.7200
377.8400
371.4400
357.3600
342.0000
301.0400
297.2000
312.5600
272.8800
289.5200
275.4400
270.3200
175.6000
130.8000
143.6000
344.5600
932.0800
916.7200
673.5200
523.7600
331.7600
279.2800
266.4800
280.5600
290.8000
266.4800
271.6000
292.0800
278.0000
275.4400
266.4800
284.4000
275.4400
267.7600
276.7200
278.0000
262.6400
266.4800
263.9200
274.1600
260.0800
276.7200
308.7200
285.6800
298.4800
330.4800
347.1200
342.0000
339.4400
338.1600
325.3600
342.0000
329.2000
320.2400
339.4400
308.7200
267.7600
224.2400
161.5200
75.7600
106.4800
160.2400
247.2800
292.0800
342.0000
303.6000
146.1600
100.0800
206.3200
278.0000
280.5600
317.6800
329.2000
339.4400
344.5600
344.5600
339.4400
358.6400
338.1600
356.0800
361.2000
377.8400
376.5600
402.1600
402.1600
416.2400
429.0400
394.4800
400.8800
371.4400
361.2000
333.0400
318.9600
324.0800
312.5600
307.4400
306.1600
307.4400
299.7600
317.6800
313.8400
294.6400
304.8800
306.1600
310.0000
302.3200
299.7600
297.2000
290.8000
306.1600
303.6000
297.2000
292.0800
307.4400
312.5600
306.1600
307.4400
292.0800
301.0400
298.4800
290.8000
304.8800
307.4400
303.6000
310.0000
292.0800
299.7600
308.7200
304.8800
289.5200
297.2000
301.0400
298.4800
307.4400
317.6800
304.8800
285.6800
317.6800
294.6400
285.6800
290.8000
298.4800
301.0400
301.0400
316.4000
308.7200
293.3600
288.2400
280.5600
281.8400
292.0800
299.7600
294.6400
290.8000
303.6000
292.0800
276.7200
280.5600
286.9600
297.2000
289.5200
290.8000
280.5600
298.4800
301.0400
292.0800
293.3600
330.4800
331.7600
372.7200
370.1600
347.1200
321.5200
324.0800
280.5600
283.1200
288.2400
274.1600
263.9200
217.8400
139.7600
106.4800
281.8400
718.3200
971.7600
704.2400
581.3600
359.9200
290.8000
261.3600
243.4400
266.4800
248.5600
261.3600
257.5200
278.0000
269.0400
251.1200
253.6800
272.8800
265.2000
260.0800
256.2400
262.6400
261.3600
266.4800
260.0800
262.6400
275.4400
280.5600
292.0800
303.6000
316.4000
339.4400
359.9200
377.8400
363.7600
368.8800
367.6000
357.3600
339.4400
330.4800
316.4000
316.4000
311.2800
304.8800
301.0400
292.0800
293.3600
270.3200
270.3200
262.6400
262.6400
263.9200
266.4800
289.5200
258.8000
262.6400
265.2000
284.4000
283.1200
262.6400
279.2800
292.0800
272.8800
310.0000
281.8400
295.9200
310.0000
333.0400
354.8000
366.3200
367.6000
347.1200
307.4400
289.5200
279.2800
302.3200
281.8400
267.7600
261.3600
244.7200
137.2000
111.6000
233.2000
644.0800
1017.8400
734.9600
622.3200
403.4400
284.4000
279.2800
260.0800
263.9200
249.8400
280.5600
260.0800
267.7600
261.3600
278.0000
254.9600
263.9200
275.4400
270.3200
267.7600
244.7200
242.1600
256.2400
272.8800
272.8800
270.3200
272.8800
257.5200
293.3600
302.3200
320.2400
334.3200
344.5600
330.4800
330.4800
330.4800
316.4000
303.6000
298.4800
294.6400
295.9200
306.1600
289.5200
285.6800
286.9600
285.6800
272.8800
274.1600
293.3600
289.5200
270.3200
290.8000
278.0000
290.8000
278.0000
285.6800
281.8400
288.2400
294.6400
289.5200
298.4800
290.8000
276.7200
304.8800
331.7600
330.4800
357.3600
370.1600
358.6400
352.2400
321.5200
294.6400
284.4000
310.0000
261.3600
275.4400
288.2400
256.2400
121.8400
86.0000
249.8400
663.2800
1005.0400
731.1200
623.6000
406.0000
263.9200
286.9600
267.7600
266.4800
260.0800
263.9200
257.5200
270.3200
257.5200
267.7600
267.7600
292.0800
272.8800
257.5200
257.5200
256.2400
256.2400
257.5200
280.5600
274.1600
260.0800
281.8400
288.2400
295.9200
313.8400
330.4800
356.0800
336.8800
336.8800
342.0000
316.4000
312.5600
321.5200
315.1200
295.9200
308.7200
299.7600
310.0000
302.3200
279.2800
278.0000
267.7600
278.0000
275.4400
283.1200
270.3200
274.1600
284.4000
286.9600
272.8800
289.5200
281.8400
286.9600
304.8800
286.9600
285.6800
304.8800
331.7600
333.0400
350.9600
377.8400
359.9200
349.6800
304.8800
293.3600
290.8000
285.6800
288.2400
301.0400
253.6800
210.1600
126.9600
86.0000
249.8400
775.9200
984.5600
705.5200
598.0000
335.6000
278.0000
272.8800
256.2400
267.7600
256.2400
260.0800
263.9200
267.7600
256.2400
279.2800
265.2000
252.4000
261.3600
262.6400
253.6800
267.7600
266.4800
263.9200
252.4000
249.8400
275.4400
271.6000
276.7200
293.3600
315.1200
310.0000
317.6800
330.4800
326.6400
326.6400
326.6400
325.3600
293.3600
311.2800
301.0400
307.4400
284.4000
302.3200
288.2400
293.3600
304.8800
272.8800
278.0000
272.8800
275.4400
280.5600
285.6800
281.8400
285.6800
304.8800
269.0400
295.9200
285.6800
299.7600
289.5200
303.6000
325.3600
344.5600
359.9200
361.2000
362.4800
347.1200
316.4000
310.0000
283.1200
286.9600
283.1200
275.4400
263.9200
253.6800
156.4000
94.9600
207.6000
583.9200
1003.7600
731.1200
603.1200
416.2400
285.6800
281.8400
262.6400
272.8800
280.5600
276.7200
252.4000
258.8000
267.7600
279.2800
253.6800
279.2800
260.0800
270.3200
249.8400
258.8000
260.0800
265.2000
270.3200
258.8000
257.5200
278.0000
285.6800
290.8000
303.6000
330.4800
333.0400
344.5600
333.0400
322.8000
340.7200
315.1200
310.0000
312.5600
307.4400
295.9200
298.4800
284.4000
293.3600
308.7200
279.2800
279.2800
279.2800
275.4400
275.4400
297.2000
294.6400
263.9200
274.1600
275.4400
290.8000
284.4000
293.3600
290.8000
308.7200
310.0000
311.2800
324.0800
345.8400
365.0400
374.0000
350.9600
349.6800
313.8400
302.3200
294.6400
284.4000
270.3200
285.6800
280.5600
216.5600
125.6800
97.5200
252.4000
729.8400
1008.8800
683.7600
568.5600
374.0000
279.2800
281.8400
263.9200
279.2800
269.0400
276.7200
286.9600
261.3600
257.5200
269.0400
269.0400
274.1600
261.3600
261.3600
265.2000
267.7600
257.5200
260.0800
274.1600
252.4000
248.5600
275.4400
283.1200
308.7200
308.7200
322.8000
334.3200
322.8000
327.9200
342.0000
313.8400
311.2800
310.0000
317.6800
315.1200
289.5200
289.5200
293.3600
308.7200
310.0000
265.2000
272.8800
289.5200
278.0000
270.3200
275.4400
308.7200
279.2800
270.3200
276.7200
292.0800
284.4000
285.6800
280.5600
311.2800
322.8000
322.8000
356.0800
384.2400
348.4000
352.2400
322.8000
302.3200
289.5200
297.2000
266.4800
292.0800
286.9600
279.2800
158.9600
84.7200
158.9600
393.2000
989.6800
864.2400
668.4000
477.6800
276.7200
280.5600
280.5600
261.3600
265.2000
278.0000
263.9200
278.0000
276.7200
289.5200
261.3600
263.9200
258.8000
274.1600
262.6400
271.6000
266.4800
258.8000
266.4800
257.5200
263.9200
274.1600
274.1600
298.4800
303.6000
308.7200
326.6400
327.9200
313.8400
320.2400
316.4000
318.9600
318.9600
304.8800
310.0000
312.5600
313.8400
304.8800
278.0000
276.7200
293.3600
285.6800
267.7600
272.8800
281.8400
280.5600
285.6800
295.9200
289.5200
295.9200
286.9600
263.9200
281.8400
286.9600
295.9200
292.0800
301.0400
335.6000
340.7200
350.9600
379.1200
363.7600
338.1600
306.1600
290.8000
283.1200
302.3200
275.4400
281.8400
263.9200
244.7200
130.8000
79.6000
242.1600
718.3200
1005.0400
722.1600
612.0800
363.7600
257.5200
278.0000
276.7200
266.4800
253.6800
272.8800
278.0000
261.3600
263.9200
280.5600
275.4400
270.3200
263.9200
266.4800
263.9200
263.9200
262.6400
267.7600
242.1600
260.0800
267.7600
276.7200
276.7200
292.0800
318.9600
311.2800
335.6000
348.4000
327.9200
320.2400
318.9600
316.4000
308.7200
306.1600
310.0000
307.4400
299.7600
303.6000
306.1600
289.5200
280.5600
294.6400
274.1600
275.4400
275.4400
286.9600
276.7200
284.4000
288.2400
285.6800
286.9600
293.3600
285.6800
283.1200
283.1200
301.0400
308.7200
312.5600
324.0800
334.3200
358.6400
362.4800
343.2800
339.4400
325.3600
289.5200
279.2800
301.0400
278.0000
270.3200
267.7600
217.8400
124.4000
92.4000
260.0800
763.1200
976.8800
688.8800
578.8000
365.0400
275.4400
280.5600
263.9200
262.6400
286.9600
283.1200
240.8800
258.8000
281.8400
271.6000
253.6800
266.4800
280.5600
270.3200
248.5600
263.9200
283.1200
262.6400
253.6800
256.2400
265.2000
283.1200
295.9200
308.7200
310.0000
343.2800
342.0000
327.9200
333.0400
329.2000
324.0800
312.5600
317.6800
322.8000
290.8000
303.6000
301.0400
280.5600
290.8000
280.5600
281.8400
280.5600
276.7200
294.6400
297.2000
267.7600
265.2000
272.8800
284.4000
289.5200
294.6400
274.1600
293.3600
293.3600
286.9600
288.2400
301.0400
276.7200
308.7200
329.2000
338.1600
348.4000
376.5600
371.4400
344.5600
317.6800
315.1200
279.2800
278.0000
285.6800
286.9600
270.3200
248.5600
153.8400
106.4800
184.5600
525.0400
1003.7600
764.4000
604.4000
426.4800
292.0800
286.9600
261.3600
284.4000
251.1200
265.2000
269.0400
272.8800
261.3600
281.8400
293.3600
248.5600
256.2400
262.6400
265.2000
266.4800
267.7600
285.6800
242.1600
256.2400
278.0000
290.8000
279.2800
288.2400
312.5600
322.8000
340.7200
352.2400
342.0000
320.2400
315.1200
313.8400
315.1200
322.8000
310.0000
286.9600
294.6400
302.3200
289.5200
288.2400
285.6800
294.6400
283.1200
284.4000
269.0400
267.7600
281.8400
303.6000
266.4800
283.1200
299.7600
288.2400
278.0000
285.6800
294.6400
275.4400
280.5600
299.7600
302.3200
292.0800
315.1200
349.6800
356.0800
363.7600
365.0400
376.5600
315.1200
280.5600
275.4400
301.0400
278.0000
274.1600
270.3200
279.2800
155.1200
101.3600
180.7200
391.9200
942.3200
847.6000
653.0400
480.2400
292.0800
279.2800
275.4400
275.4400
265.2000
284.4000
253.6800
265.2000
275.4400
267.7600
265.2000
271.6000
274.1600
262.6400
253.6800
261.3600
265.2000
262.6400
258.8000
263.9200
261.3600
285.6800
279.2800
289.5200
313.8400
312.5600
329.2000
335.6000
340.7200
326.6400
322.8000
315.1200
311.2800
310.0000
303.6000
301.0400
301.0400
302.3200
293.3600
302.3200
279.2800
278.0000
278.0000
275.4400
275.4400
272.8800
279.2800
281.8400
290.8000
298.4800
263.9200
286.9600
295.9200
288.2400
283.1200
297.2000
272.8800
295.9200
298.4800
310.0000
329.2000
326.6400
375.2800
375.2800
343.2800
339.4400
321.5200
288.2400
286.9600
295.9200
270.3200
275.4400
275.4400
220.4000
125.6800
88.5600
229.3600
747.7600
993.5200
710.6400
617.2000
347.1200
253.6800
271.6000
265.2000
270.3200
269.0400
276.7200
257.5200
265.2000
271.6000
292.0800
262.6400
261.3600
261.3600
266.4800
278.0000
269.0400
240.8800
262.6400
261.3600
265.2000
281.8400
279.2800
284.4000
295.9200
311.2800
327.9200
347.1200
330.4800
329.2000
321.5200
315.1200
315.1200
315.1200
304.8800
304.8800
324.0800
303.6000
298.4800
286.9600
295.9200
279.2800
285.6800
270.3200
278.0000
288.2400
288.2400
272.8800
280.5600
279.2800
280.5600
290.8000
279.2800
285.6800
299.7600
298.4800
283.1200
290.8000
285.6800
274.1600
307.4400
324.0800
335.6000
353.5200
389.3600
359.9200
336.8800
317.6800
325.3600
283.1200
267.7600
269.0400
286.9600
280.5600
233.2000
142.3200
106.4800
201.2000
615.9200
1017.8400
734.9600
613.3600
398.3200
283.1200
299.7600
263.9200
267.7600
261.3600
267.7600
258.8000
269.0400
270.3200
280.5600
270.3200
278.0000
265.2000
258.8000
258.8000
263.9200
261.3600
271.6000
253.6800
257.5200
270.3200
284.4000
281.8400
294.6400
317.6800
329.2000
331.7600
338.1600
340.7200
326.6400
327.9200
313.8400
317.6800
303.6000
307.4400
310.0000
304.8800
312.5600
286.9600
289.5200
286.9600
284.4000
281.8400
285.6800
265.2000
279.2800
272.8800
283.1200
293.3600
278.0000
293.3600
290.8000
294.6400
298.4800
280.5600
290.8000
284.4000
293.3600
284.4000
288.2400
294.6400
317.6800
335.6000
331.7600
359.9200
365.0400
354.8000
348.4000
313.8400
294.6400
283.1200
274.1600
272.8800
297.2000
265.2000
206.3200
132.0800
98.8000
267.7600
778.4800
966.6400
673.5200
571.1200
367.6000
286.9600
279.2800
256.2400
261.3600
263.9200
271.6000
263.9200
269.0400
281.8400
265.2000
267.7600
265.2000
272.8800
272.8800
254.9600
263.9200
254.9600
271.6000
266.4800
274.1600
257.5200
275.4400
283.1200
306.1600
339.4400
338.1600
331.7600
336.8800
342.0000
331.7600
330.4800
320.2400
313.8400
311.2800
301.0400
298.4800
301.0400
307.4400
294.6400
292.0800
286.9600
280.5600
290.8000
285.6800
281.8400
275.4400
278.0000
288.2400
278.0000
295.9200
280.5600
278.0000
295.9200
293.3600
281.8400
294.6400
306.1600
286.9600
278.0000
310.0000
279.2800
312.5600
330.4800
334.3200
348.4000
380.4000
361.2000
344.5600
327.9200
302.3200
294.6400
299.7600
256.2400
274.1600
280.5600
260.0800
134.6400
94.9600
221.6800
586.4800
1006.3200
745.2000
615.9200
403.4400
278.0000
303.6000
266.4800
271.6000
263.9200
267.7600
271.6000
275.4400
262.6400
271.6000
267.7600
292.0800
262.6400
253.6800
285.6800
262.6400
239.6000
260.0800
265.2000
262.6400
283.1200
265.2000
278.0000
307.4400
318.9600
