479.5200
479.5200
474.4000
489.7600
489.7600
484.6400
489.7600
479.5200
474.4000
459.0400
464.1600
443.6800
459.0400
443.6800
443.6800
453.9200
505.1200
530.7200
561.4400
556.3200
622.8800
587.0400
556.3200
489.7600
494.8800
407.8400
402.7200
387.3600
402.7200
382.2400
402.7200
377.1200
407.8400
418.0800
704.8000
1047.8400
172.3200
136.4800
300.3200
407.8400
412.9600
392.4800
407.8400
402.7200
423.2000
402.7200
428.3200
412.9600
438.5600
433.4400
469.2800
474.4000
500.0000
510.2400
535.8400
556.3200
612.6400
633.1200
679.2000
715.0400
745.7600
761.1200
791.8400
802.0800
796.9600
735.5200
704.8000
617.7600
556.3200
510.2400
484.6400
469.2800
453.9200
459.0400
464.1600
479.5200
464.1600
479.5200
474.4000
479.5200
469.2800
479.5200
469.2800
469.2800
453.9200
464.1600
453.9200
453.9200
433.4400
443.6800
459.0400
535.8400
551.2000
571.6800
561.4400
607.5200
587.0400
530.7200
500.0000
464.1600
397.6000
387.3600
377.1200
407.8400
387.3600
392.4800
372.0000
412.9600
438.5600
699.6800
919.8400
34.0800
105.7600
295.2000
412.9600
412.9600
392.4800
402.7200
366.8800
402.7200
392.4800
423.2000
407.8400
443.6800
428.3200
453.9200
464.1600
500.0000
500.0000
551.2000
561.4400
622.8800
628.0000
689.4400
704.8000
756.0000
776.4800
807.2000
822.5600
786.7200
750.8800
679.2000
597.2800
546.0800
500.0000
459.0400
464.1600
453.9200
453.9200
443.6800
448.8000
459.0400
453.9200
479.5200
448.8000
469.2800
448.8000
459.0400
443.6800
438.5600
443.6800
453.9200
438.5600
433.4400
443.6800
500.0000
530.7200
556.3200
535.8400
612.6400
587.0400
561.4400
500.0000
469.2800
382.2400
372.0000
372.0000
392.4800
377.1200
392.4800
361.7600
377.1200
418.0800
638.2400
976.1600
259.3600
105.7600
228.6400
346.4000
372.0000
366.8800
397.6000
377.1200
397.6000
377.1200
418.0800
407.8400
433.4400
428.3200
459.0400
459.0400
494.8800
505.1200
525.6000
556.3200
581.9200
612.6400
684.3200
694.5600
750.8800
766.2400
791.8400
807.2000
796.9600
761.1200
725.2800
617.7600
556.3200
510.2400
484.6400
443.6800
464.1600
459.0400
438.5600
453.9200
469.2800
464.1600
464.1600
469.2800
464.1600
459.0400
443.6800
443.6800
453.9200
448.8000
438.5600
448.8000
448.8000
448.8000
474.4000
546.0800
546.0800
551.2000
622.8800
597.2800
546.0800
489.7600
489.7600
397.6000
377.1200
387.3600
392.4800
387.3600
387.3600
372.0000
382.2400
428.3200
663.8400
1027.3600
361.7600
121.1200
264.4800
377.1200
407.8400
397.6000
392.4800
392.4800
407.8400
392.4800
423.2000
407.8400
433.4400
428.3200
453.9200
459.0400
500.0000
500.0000
540.9600
556.3200
592.1600
612.6400
663.8400
699.6800
730.4000
766.2400
786.7200
786.7200
807.2000
771.3600
709.9200
633.1200
571.6800
510.2400
479.5200
453.9200
464.1600
469.2800
469.2800
464.1600
453.9200
459.0400
474.4000
479.5200
469.2800
469.2800
453.9200
453.9200
459.0400
448.8000
438.5600
443.6800
428.3200
428.3200
474.4000
540.9600
546.0800
571.6800
607.5200
607.5200
581.9200
500.0000
500.0000
438.5600
387.3600
397.6000
397.6000
387.3600
382.2400
387.3600
372.0000
412.9600
556.3200
832.8000
500.0000
75.0400
213.2800
356.6400
412.9600
387.3600
392.4800
392.4800
397.6000
392.4800
397.6000
418.0800
423.2000
438.5600
448.8000
469.2800
489.7600
500.0000
525.6000
561.4400
592.1600
622.8800
663.8400
709.9200
740.6400
756.0000
802.0800
807.2000
807.2000
786.7200
715.0400
643.3600
571.6800
515.3600
484.6400
474.4000
448.8000
443.6800
448.8000
464.1600
459.0400
453.9200
464.1600
464.1600
474.4000
464.1600
453.9200
474.4000
464.1600
448.8000
443.6800
448.8000
438.5600
443.6800
494.8800
546.0800
551.2000
556.3200
607.5200
587.0400
561.4400
505.1200
479.5200
397.6000
382.2400
382.2400
382.2400
377.1200
377.1200
377.1200
372.0000
428.3200
576.8000
843.0400
484.6400
85.2800
218.4000
325.9200
397.6000
392.4800
392.4800
407.8400
387.3600
387.3600
418.0800
418.0800
423.2000
423.2000
453.9200
474.4000
489.7600
500.0000
525.6000
566.5600
581.9200
607.5200
668.9600
704.8000
740.6400
771.3600
781.6000
817.4400
822.5600
776.4800
725.2800
628.0000
581.9200
505.1200
474.4000
474.4000
448.8000
459.0400
448.8000
448.8000
453.9200
459.0400
479.5200
464.1600
448.8000
459.0400
459.0400
453.9200
443.6800
443.6800
438.5600
428.3200
433.4400
433.4400
500.0000
540.9600
540.9600
551.2000
617.7600
576.8000
556.3200
479.5200
484.6400
397.6000
382.2400
372.0000
392.4800
377.1200
382.2400
366.8800
392.4800
428.3200
668.9600
1017.1200
331.0400
110.8800
249.1200
346.4000
387.3600
392.4800
392.4800
382.2400
423.2000
397.6000
407.8400
402.7200
443.6800
459.0400
448.8000
448.8000
489.7600
515.3600
556.3200
546.0800
607.5200
638.2400
668.9600
704.8000
761.1200
802.0800
802.0800
817.4400
817.4400
766.2400
725.2800
638.2400
556.3200
535.8400
489.7600
494.8800
464.1600
464.1600
438.5600
474.4000
474.4000
453.9200
474.4000
459.0400
474.4000
459.0400
448.8000
459.0400
428.3200
433.4400
428.3200
433.4400
428.3200
433.4400
464.1600
540.9600
535.8400
576.8000
561.4400
617.7600
592.1600
515.3600
489.7600
438.5600
372.0000
397.6000
377.1200
382.2400
372.0000
402.7200
366.8800
433.4400
510.2400
858.4000
981.2800
100.6400
203.0400
351.5200
433.4400
407.8400
377.1200
407.8400
372.0000
407.8400
387.3600
428.3200
412.9600
448.8000
433.4400
474.4000
448.8000
494.8800
520.4800
556.3200
566.5600
607.5200
653.6000
694.5600
730.4000
761.1200
781.6000
817.4400
827.6800
807.2000
761.1200
679.2000
607.5200
546.0800
500.0000
474.4000
474.4000
479.5200
474.4000
469.2800
469.2800
479.5200
469.2800
464.1600
469.2800
484.6400
469.2800
484.6400
459.0400
464.1600
453.9200
453.9200
443.6800
453.9200
469.2800
546.0800
551.2000
581.9200
576.8000
617.7600
592.1600
520.4800
500.0000
459.0400
402.7200
412.9600
382.2400
407.8400
382.2400
397.6000
382.2400
443.6800
500.0000
766.2400
858.4000
44.3200
141.6000
346.4000
438.5600
418.0800
402.7200
407.8400
387.3600
423.2000
402.7200
438.5600
428.3200
438.5600
453.9200
474.4000
489.7600
510.2400
520.4800
566.5600
587.0400
633.1200
663.8400
709.9200
730.4000
766.2400
791.8400
802.0800
817.4400
802.0800
745.7600
684.3200
602.4000
546.0800
494.8800
469.2800
453.9200
453.9200
459.0400
464.1600
464.1600
469.2800
459.0400
479.5200
469.2800
453.9200
459.0400
464.1600
459.0400
438.5600
438.5600
448.8000
438.5600
433.4400
443.6800
500.0000
546.0800
546.0800
546.0800
612.6400
592.1600
561.4400
489.7600
479.5200
397.6000
377.1200
382.2400
387.3600
372.0000
387.3600
377.1200
418.0800
423.2000
643.3600
924.9600
218.4000
80.1600
269.6000
361.7600
397.6000
382.2400
387.3600
397.6000
407.8400
402.7200
418.0800
402.7200
433.4400
453.9200
459.0400
464.1600
500.0000
505.1200
535.8400
571.6800
622.8800
643.3600
663.8400
715.0400
740.6400
766.2400
812.3200
822.5600
817.4400
786.7200
715.0400
617.7600
576.8000
510.2400
474.4000
459.0400
453.9200
443.6800
469.2800
453.9200
459.0400
469.2800
469.2800
469.2800
459.0400
464.1600
484.6400
459.0400
459.0400
459.0400
453.9200
433.4400
448.8000
453.9200
489.7600
546.0800
561.4400
566.5600
617.7600
602.4000
561.4400
505.1200
474.4000
418.0800
382.2400
392.4800
402.7200
351.5200
382.2400
387.3600
397.6000
433.4400
658.7200
1012.0000
341.2800
131.3600
223.5200
331.0400
402.7200
402.7200
392.4800
387.3600
407.8400
377.1200
418.0800
418.0800
448.8000
423.2000
459.0400
453.9200
500.0000
489.7600
520.4800
566.5600
612.6400
638.2400
663.8400
715.0400
750.8800
791.8400
817.4400
796.9600
817.4400
781.6000
699.6800
622.8800
556.3200
510.2400
479.5200
464.1600
433.4400
438.5600
443.6800
453.9200
448.8000
438.5600
474.4000
479.5200
453.9200
474.4000
464.1600
428.3200
464.1600
423.2000
448.8000
428.3200
443.6800
428.3200
433.4400
443.6800
515.3600
525.6000
546.0800
561.4400
612.6400
571.6800
510.2400
479.5200
459.0400
392.4800
382.2400
361.7600
382.2400
351.5200
392.4800
372.0000
433.4400
500.0000
817.4400
950.5600
90.4000
151.8400
325.9200
423.2000
397.6000
366.8800
392.4800
397.6000
397.6000
392.4800
423.2000
433.4400
459.0400
433.4400
453.9200
489.7600
505.1200
500.0000
551.2000
566.5600
622.8800
658.7200
694.5600
704.8000
761.1200
786.7200
807.2000
807.2000
791.8400
750.8800
694.5600
592.1600
540.9600
494.8800
479.5200
469.2800
453.9200
448.8000
443.6800
453.9200
459.0400
469.2800
459.0400
469.2800
464.1600
464.1600
459.0400
453.9200
438.5600
453.9200
438.5600
438.5600
428.3200
443.6800
428.3200
489.7600
525.6000
556.3200
561.4400
633.1200
581.9200
535.8400
484.6400
469.2800
392.4800
387.3600
356.6400
387.3600
377.1200
397.6000
366.8800
392.4800
397.6000
668.9600
971.0400
69.9200
44.3200
264.4800
402.7200
402.7200
377.1200
382.2400
372.0000
397.6000
387.3600
402.7200
402.7200
428.3200
412.9600
438.5600
443.6800
484.6400
500.0000
530.7200
551.2000
597.2800
628.0000
679.2000
699.6800
735.5200
756.0000
796.9600
802.0800
807.2000
766.2400
699.6800
617.7600
556.3200
500.0000
474.4000
459.0400
448.8000
443.6800
448.8000
433.4400
448.8000
464.1600
459.0400
474.4000
453.9200
459.0400
453.9200
479.5200
464.1600
464.1600
453.9200
453.9200
433.4400
443.6800
448.8000
515.3600
551.2000
576.8000
566.5600
622.8800
597.2800
540.9600
484.6400
494.8800
407.8400
397.6000
366.8800
402.7200
382.2400
397.6000
377.1200
418.0800
418.0800
684.3200
1001.7600
136.4800
95.5200
274.7200
361.7600
418.0800
392.4800
407.8400
402.7200
412.9600
392.4800
412.9600
423.2000
438.5600
443.6800
479.5200
484.6400
505.1200
494.8800
540.9600
571.6800
602.4000
663.8400
704.8000
720.1600
756.0000
791.8400
817.4400
827.6800
812.3200
776.4800
704.8000
643.3600
576.8000
505.1200
484.6400
453.9200
479.5200
464.1600
464.1600
469.2800
469.2800
459.0400
474.4000
479.5200
464.1600
479.5200
464.1600
459.0400
459.0400
453.9200
453.9200
453.9200
438.5600
448.8000
464.1600
505.1200
540.9600
551.2000
546.0800
628.0000
592.1600
561.4400
479.5200
484.6400
407.8400
402.7200
377.1200
377.1200
382.2400
402.7200
372.0000
402.7200
428.3200
633.1200
1017.1200
351.5200
121.1200
233.7600
325.9200
412.9600
392.4800
402.7200
392.4800
402.7200
412.9600
397.6000
433.4400
453.9200
433.4400
464.1600
459.0400
500.0000
530.7200
546.0800
556.3200
597.2800
622.8800
679.2000
725.2800
745.7600
766.2400
786.7200
817.4400
817.4400
796.9600
720.1600
648.4800
581.9200
535.8400
489.7600
474.4000
464.1600
428.3200
464.1600
459.0400
469.2800
464.1600
474.4000
484.6400
479.5200
474.4000
453.9200
443.6800
464.1600
469.2800
459.0400
464.1600
448.8000
443.6800
443.6800
448.8000
428.3200
500.0000
551.2000
566.5600
561.4400
628.0000
602.4000
566.5600
505.1200
500.0000
407.8400
397.6000
392.4800
412.9600
392.4800
387.3600
382.2400
397.6000
428.3200
689.4400
1042.7200
320.8000
95.5200
264.4800
387.3600
433.4400
397.6000
387.3600
377.1200
412.9600
407.8400
423.2000
418.0800
443.6800
438.5600
459.0400
464.1600
500.0000
510.2400
535.8400
556.3200
602.4000
628.0000
663.8400
694.5600
740.6400
786.7200
807.2000
802.0800
802.0800
771.3600
715.0400
643.3600
581.9200
520.4800
489.7600
469.2800
469.2800
474.4000
464.1600
448.8000
464.1600
469.2800
469.2800
479.5200
469.2800
479.5200
459.0400
474.4000
448.8000
459.0400
428.3200
438.5600
448.8000
428.3200
428.3200
433.4400
433.4400
494.8800
540.9600
546.0800
551.2000
622.8800
597.2800
540.9600
500.0000
494.8800
423.2000
387.3600
377.1200
397.6000
397.6000
397.6000
382.2400
392.4800
392.4800
607.5200
924.9600
274.7200
54.5600
238.8800
372.0000
397.6000
387.3600
397.6000
382.2400
397.6000
392.4800
412.9600
418.0800
448.8000
438.5600
443.6800
474.4000
505.1200
500.0000
525.6000
566.5600
597.2800
648.4800
689.4400
709.9200
750.8800
781.6000
802.0800
812.3200
832.8000
791.8400
720.1600
643.3600
581.9200
525.6000
489.7600
459.0400
459.0400
474.4000
453.9200
459.0400
474.4000
469.2800
469.2800
469.2800
464.1600
474.4000
464.1600
464.1600
443.6800
448.8000
448.8000
443.6800
433.4400
443.6800
443.6800
448.8000
459.0400
525.6000
525.6000
576.8000
571.6800
638.2400
587.0400
530.7200
494.8800
474.4000
397.6000
397.6000
372.0000
418.0800
392.4800
407.8400
372.0000
428.3200
438.5600
679.2000
1017.1200
136.4800
126.2400
259.3600
366.8800
397.6000
382.2400
407.8400
387.3600
397.6000
402.7200
428.3200
428.3200
438.5600
438.5600
479.5200
469.2800
510.2400
525.6000
556.3200
561.4400
617.7600
648.4800
704.8000
725.2800
781.6000
791.8400
817.4400
817.4400
827.6800
781.6000
730.4000
653.6000
561.4400
535.8400
500.0000
484.6400
464.1600
469.2800
464.1600
479.5200
459.0400
484.6400
469.2800
464.1600
489.7600
500.0000
479.5200
464.1600
459.0400
464.1600
469.2800
453.9200
453.9200
443.6800
428.3200
438.5600
479.5200
556.3200
540.9600
556.3200
592.1600
612.6400
576.8000
510.2400
494.8800
438.5600
377.1200
407.8400
382.2400
382.2400
372.0000
392.4800
377.1200
438.5600
556.3200
884.0000
848.1600
121.1200
197.9200
295.2000
402.7200
392.4800
387.3600
407.8400
387.3600
402.7200
392.4800
412.9600
418.0800
433.4400
453.9200
464.1600
474.4000
500.0000
505.1200
540.9600
571.6800
622.8800
638.2400
699.6800
735.5200
761.1200
771.3600
802.0800
812.3200
807.2000
750.8800
679.2000
612.6400
540.9600
500.0000
489.7600
469.2800
474.4000
474.4000
459.0400
459.0400
474.4000
464.1600
469.2800
479.5200
464.1600
459.0400
469.2800
459.0400
479.5200
459.0400
453.9200
453.9200
448.8000
448.8000
453.9200
443.6800
494.8800
535.8400
571.6800
587.0400
622.8800
597.2800
561.4400
500.0000
494.8800
423.2000
397.6000
372.0000
392.4800
382.2400
407.8400
382.2400
387.3600
402.7200
694.5600
1032.4800
244.0000
85.2800
274.7200
392.4800
407.8400
382.2400
397.6000
377.1200
402.7200
407.8400
412.9600
412.9600
433.4400
438.5600
453.9200
469.2800
484.6400
500.0000
520.4800
546.0800
592.1600
617.7600
679.2000
699.6800
745.7600
761.1200
781.6000
781.6000
812.3200
776.4800
704.8000
633.1200
581.9200
530.7200
494.8800
474.4000
453.9200
453.9200
464.1600
459.0400
479.5200
474.4000
464.1600
484.6400
469.2800
474.4000
453.9200
474.4000
459.0400
459.0400
453.9200
459.0400
428.3200
448.8000
438.5600
443.6800
464.1600
530.7200
540.9600
576.8000
581.9200
612.6400
581.9200
515.3600
479.5200
453.9200
392.4800
397.6000
377.1200
392.4800
372.0000
402.7200
366.8800
407.8400
448.8000
720.1600
868.6400
13.6000
105.7600
305.4400
412.9600
397.6000
372.0000
407.8400
392.4800
392.4800
392.4800
418.0800
418.0800
438.5600
433.4400
464.1600
464.1600
500.0000
510.2400
546.0800
556.3200
633.1200
648.4800
709.9200
709.9200
745.7600
786.7200
812.3200
832.8000
812.3200
756.0000
694.5600
607.5200
530.7200
515.3600
489.7600
479.5200
459.0400
459.0400
453.9200
474.4000
459.0400
474.4000
464.1600
500.0000
489.7600
479.5200
474.4000
474.4000
469.2800
474.4000
453.9200
469.2800
459.0400
453.9200
489.7600
566.5600
551.2000
581.9200
617.7600
638.2400
612.6400
530.7200
515.3600
469.2800
392.4800
418.0800
402.7200
412.9600
392.4800
423.2000
387.3600
469.2800
510.2400
791.8400
853.2800
95.5200
172.3200
305.4400
423.2000
418.0800
392.4800
433.4400
402.7200
412.9600
428.3200
443.6800
433.4400
464.1600
464.1600
489.7600
489.7600
500.0000
530.7200
556.3200
592.1600
638.2400
663.8400
699.6800
745.7600
786.7200
796.9600
827.6800
837.9200
817.4400
761.1200
689.4400
617.7600
561.4400
505.1200
489.7600
464.1600
484.6400
484.6400
469.2800
464.1600
479.5200
494.8800
489.7600
500.0000
474.4000
489.7600
464.1600
474.4000
479.5200
469.2800
474.4000
453.9200
448.8000
469.2800
474.4000
551.2000
546.0800
587.0400
581.9200
628.0000
607.5200
520.4800
489.7600
474.4000
387.3600
407.8400
392.4800
418.0800
382.2400
402.7200
382.2400
448.8000
515.3600
843.0400
1012.0000
126.2400
177.4400
346.4000
438.5600
423.2000
407.8400
407.8400
397.6000
423.2000
397.6000
443.6800
433.4400
448.8000
448.8000
474.4000
474.4000
510.2400
525.6000
566.5600
571.6800
622.8800
638.2400
684.3200
730.4000
766.2400
786.7200
796.9600
802.0800
807.2000
750.8800
679.2000
592.1600
540.9600
500.0000
494.8800
474.4000
464.1600
464.1600
448.8000
479.5200
459.0400
469.2800
474.4000
484.6400
469.2800
464.1600
469.2800
464.1600
469.2800
453.9200
453.9200
443.6800
433.4400
438.5600
479.5200
556.3200
561.4400
571.6800
622.8800
602.4000
576.8000
505.1200
515.3600
423.2000
397.6000
372.0000
387.3600
402.7200
397.6000
377.1200
392.4800
418.0800
622.8800
924.9600
392.4800
64.8000
218.4000
382.2400
418.0800
397.6000
392.4800
392.4800
397.6000
402.7200
407.8400
418.0800
433.4400
423.2000
448.8000
459.0400
484.6400
500.0000
525.6000
540.9600
581.9200
622.8800
653.6000
684.3200
725.2800
756.0000
766.2400
786.7200
802.0800
766.2400
709.9200
633.1200
561.4400
505.1200
474.4000
464.1600
459.0400
453.9200
443.6800
459.0400
453.9200
459.0400
453.9200
459.0400
448.8000
474.4000
459.0400
464.1600
448.8000
438.5600
438.5600
459.0400
418.0800
433.4400
464.1600
540.9600
535.8400
581.9200
587.0400
612.6400
581.9200
510.2400
500.0000
448.8000
392.4800
392.4800
366.8800
397.6000
377.1200
382.2400
351.5200
453.9200
520.4800
735.5200
812.3200
44.3200
141.6000
305.4400
407.8400
387.3600
377.1200
407.8400
377.1200
412.9600
407.8400
418.0800
412.9600
453.9200
459.0400
484.6400
453.9200
500.0000
505.1200
566.5600
587.0400
607.5200
643.3600
684.3200
725.2800
776.4800
802.0800
796.9600
796.9600
807.2000
756.0000
684.3200
587.0400
525.6000
494.8800
464.1600
448.8000
448.8000
469.2800
423.2000
433.4400
484.6400
464.1600
443.6800
469.2800
459.0400
464.1600
438.5600
464.1600
423.2000
443.6800
438.5600
428.3200
453.9200
505.1200
546.0800
546.0800
556.3200
612.6400
587.0400
571.6800
464.1600
489.7600
397.6000
387.3600
372.0000
402.7200
366.8800
382.2400
361.7600
423.2000
464.1600
720.1600
1083.6800
167.2000
167.2000
310.5600
377.1200
382.2400
366.8800
402.7200
377.1200
412.9600
392.4800
412.9600
397.6000
428.3200
433.4400
459.0400
428.3200
474.4000
489.7600
525.6000
551.2000
576.8000
607.5200
684.3200
689.4400
735.5200
761.1200
776.4800
796.9600
786.7200
761.1200
679.2000
597.2800
551.2000
505.1200
484.6400
453.9200
453.9200
443.6800
453.9200
438.5600
469.2800
453.9200
464.1600
464.1600
448.8000
479.5200
443.6800
459.0400
459.0400
423.2000
448.8000
433.4400
428.3200
464.1600
520.4800
535.8400
581.9200
576.8000
622.8800
587.0400
515.3600
474.4000
453.9200
392.4800
392.4800
382.2400
392.4800
366.8800
382.2400
377.1200
428.3200
551.2000
863.5200
873.7600
39.2000
162.0800
356.6400
418.0800
412.9600
377.1200
387.3600
377.1200
402.7200
387.3600
412.9600
418.0800
433.4400
428.3200
464.1600
464.1600
494.8800
510.2400
551.2000
561.4400
597.2800
628.0000
679.2000
704.8000
750.8800
766.2400
786.7200
796.9600
776.4800
720.1600
658.7200
581.9200
525.6000
494.8800
489.7600
474.4000
448.8000
459.0400
459.0400
464.1600
453.9200
459.0400
448.8000
474.4000
453.9200
479.5200
459.0400
448.8000
438.5600
453.9200
428.3200
438.5600
453.9200
530.7200
551.2000
566.5600
576.8000
617.7600
587.0400
535.8400
489.7600
484.6400
392.4800
392.4800
372.0000
402.7200
377.1200
397.6000
361.7600
407.8400
448.8000
715.0400
935.2000
8.4800
100.6400
305.4400
433.4400
407.8400
372.0000
402.7200
377.1200
402.7200
397.6000
412.9600
397.6000
423.2000
433.4400
469.2800
469.2800
500.0000
494.8800
520.4800
551.2000
597.2800
622.8800
668.9600
699.6800
745.7600
756.0000
771.3600
761.1200
771.3600
740.6400
668.9600
587.0400
535.8400
500.0000
484.6400
474.4000
464.1600
464.1600
453.9200
453.9200
464.1600
464.1600
474.4000
479.5200
469.2800
464.1600
464.1600
453.9200
474.4000
469.2800
448.8000
474.4000
469.2800
515.3600
561.4400
576.8000
561.4400
622.8800
602.4000
566.5600
500.0000
505.1200
423.2000
397.6000
382.2400
397.6000
392.4800
397.6000
392.4800
412.9600
453.9200
674.0800
955.6800
269.6000
80.1600
238.8800
356.6400
407.8400
412.9600
397.6000
402.7200
438.5600
407.8400
428.3200
438.5600
438.5600
453.9200
484.6400
479.5200
500.0000
520.4800
546.0800
551.2000
602.4000
633.1200
689.4400
704.8000
740.6400
761.1200
786.7200
822.5600
807.2000
766.2400
720.1600
628.0000
581.9200
530.7200
500.0000
459.0400
453.9200
459.0400
469.2800
494.8800
453.9200
464.1600
464.1600
479.5200
479.5200
500.0000
438.5600
464.1600
453.9200
453.9200
433.4400
479.5200
484.6400
500.0000
540.9600
566.5600
561.4400
648.4800
587.0400
535.8400
494.8800
500.0000
412.9600
397.6000
361.7600
397.6000
382.2400
382.2400
372.0000
428.3200
453.9200
761.1200
1099.0400
146.7200
156.9600
305.4400
397.6000
402.7200
382.2400
418.0800
377.1200
382.2400
392.4800
433.4400
418.0800
443.6800
407.8400
453.9200
479.5200
500.0000
500.0000
546.0800
551.2000
612.6400
633.1200
684.3200
720.1600
756.0000
756.0000
776.4800
791.8400
781.6000
756.0000
674.0800
597.2800
546.0800
500.0000
453.9200
448.8000
453.9200
469.2800
464.1600
453.9200
474.4000
469.2800
459.0400
464.1600
453.9200
474.4000
459.0400
438.5600
443.6800
453.9200
443.6800
433.4400
438.5600
484.6400
540.9600
561.4400
556.3200
617.7600
592.1600
566.5600
500.0000
510.2400
407.8400
387.3600
377.1200
397.6000
377.1200
387.3600
392.4800
397.6000
438.5600
715.0400
1047.8400
320.8000
105.7600
269.6000
387.3600
407.8400
392.4800
392.4800
382.2400
407.8400
392.4800
402.7200
423.2000
438.5600
423.2000
459.0400
464.1600
484.6400
500.0000
525.6000
551.2000
587.0400
612.6400
668.9600
684.3200
735.5200
756.0000
766.2400
791.8400
776.4800
740.6400
679.2000
628.0000
576.8000
515.3600
479.5200
469.2800
474.4000
474.4000
459.0400
464.1600
453.9200
464.1600
464.1600
474.4000
469.2800
474.4000
464.1600
469.2800
453.9200
438.5600
443.6800
443.6800
453.9200
505.1200
540.9600
551.2000
566.5600
622.8800
576.8000
546.0800
479.5200
484.6400
407.8400
382.2400
372.0000
392.4800
351.5200
377.1200
361.7600
392.4800
412.9600
668.9600
976.1600
151.8400
85.2800
274.7200
392.4800
407.8400
372.0000
387.3600
372.0000
387.3600
372.0000
407.8400
402.7200
428.3200
428.3200
448.8000
459.0400
484.6400
494.8800
515.3600
540.9600
587.0400
617.7600
668.9600
694.5600
720.1600
735.5200
771.3600
781.6000
781.6000
740.6400
668.9600
592.1600
540.9600
489.7600
464.1600
448.8000
443.6800
453.9200
443.6800
443.6800
448.8000
438.5600
443.6800
448.8000
464.1600
453.9200
448.8000
433.4400
448.8000
443.6800
443.6800
438.5600
428.3200
453.9200
510.2400
525.6000
556.3200
566.5600
628.0000
576.8000
530.7200
474.4000
474.4000
402.7200
397.6000
356.6400
397.6000
372.0000
392.4800
366.8800
407.8400
418.0800
668.9600
991.5200
110.8800
126.2400
284.9600
397.6000
397.6000
366.8800
402.7200
402.7200
428.3200
392.4800
423.2000
412.9600
438.5600
443.6800
464.1600
479.5200
489.7600
505.1200
546.0800
551.2000
617.7600
628.0000
689.4400
704.8000
740.6400
756.0000
796.9600
796.9600
771.3600
740.6400
684.3200
607.5200
540.9600
494.8800
474.4000
459.0400
453.9200
448.8000
479.5200
453.9200
448.8000
453.9200
500.0000
474.4000
464.1600
453.9200
474.4000
453.9200
433.4400
438.5600
443.6800
407.8400
433.4400
459.0400
515.3600
520.4800
556.3200
571.6800
622.8800
587.0400
530.7200
464.1600
433.4400
377.1200
372.0000
366.8800
377.1200
372.0000
392.4800
351.5200
428.3200
479.5200
730.4000
935.2000
100.6400
172.3200
290.0800
397.6000
392.4800
392.4800
407.8400
361.7600
407.8400
392.4800
423.2000
412.9600
433.4400
438.5600
479.5200
464.1600
489.7600
520.4800
551.2000
566.5600
612.6400
617.7600
674.0800
715.0400
735.5200
756.0000
791.8400
786.7200
766.2400
715.0400
658.7200
571.6800
530.7200
500.0000
469.2800
464.1600
453.9200
443.6800
448.8000
453.9200
459.0400
464.1600
464.1600
469.2800
474.4000
459.0400
448.8000
448.8000
443.6800
443.6800
438.5600
433.4400
433.4400
448.8000
438.5600
500.0000
535.8400
556.3200
566.5600
617.7600
592.1600
561.4400
515.3600
500.0000
423.2000
382.2400
387.3600
392.4800
377.1200
392.4800
392.4800
397.6000
407.8400
633.1200
940.3200
336.1600
121.1200
259.3600
377.1200
412.9600
387.3600
397.6000
392.4800
407.8400
397.6000
412.9600
423.2000
428.3200
428.3200
459.0400
469.2800
489.7600
500.0000
525.6000
556.3200
592.1600
628.0000
663.8400
689.4400
725.2800
750.8800
786.7200
786.7200
786.7200
761.1200
709.9200
638.2400
566.5600
510.2400
494.8800
474.4000
469.2800
474.4000
474.4000
474.4000
464.1600
479.5200
474.4000
494.8800
489.7600
494.8800
494.8800
484.6400
464.1600
479.5200
464.1600
453.9200
453.9200
464.1600
448.8000
453.9200
459.0400
535.8400
551.2000
581.9200
576.8000
643.3600
597.2800
540.9600
484.6400
479.5200
412.9600
412.9600
387.3600
412.9600
366.8800
392.4800
387.3600
418.0800
433.4400
674.0800
996.6400
141.6000
141.6000
295.2000
382.2400
407.8400
392.4800
397.6000
372.0000
418.0800
392.4800
407.8400
418.0800
443.6800
423.2000
464.1600
469.2800
479.5200
500.0000
535.8400
571.6800
607.5200
617.7600
663.8400
704.8000
740.6400
766.2400
786.7200
781.6000
796.9600
750.8800
684.3200
612.6400
561.4400
510.2400
479.5200
464.1600
459.0400
443.6800
469.2800
464.1600
464.1600
464.1600
484.6400
469.2800
474.4000
479.5200
469.2800
448.8000
479.5200
469.2800
438.5600
459.0400
448.8000
428.3200
448.8000
433.4400
489.7600
561.4400
546.0800
556.3200
622.8800
612.6400
571.6800
500.0000
474.4000
407.8400
397.6000
407.8400
402.7200
382.2400
382.2400
392.4800
397.6000
438.5600
607.5200
955.6800
500.0000
116.0000
233.7600
336.1600
397.6000
407.8400
382.2400
372.0000
392.4800
412.9600
423.2000
407.8400
418.0800
453.9200
459.0400
459.0400
474.4000
489.7600
520.4800
535.8400
571.6800
622.8800
648.4800
679.2000
709.9200
730.4000
756.0000
771.3600
781.6000
761.1200
720.1600
638.2400
576.8000
530.7200
494.8800
474.4000
453.9200
459.0400
448.8000
459.0400
459.0400
464.1600
469.2800
474.4000
479.5200
474.4000
459.0400
464.1600
469.2800
474.4000
438.5600
438.5600
438.5600
433.4400
423.2000
438.5600
464.1600
525.6000
535.8400
571.6800
576.8000
638.2400
592.1600
535.8400
489.7600
494.8800
407.8400
392.4800
366.8800
402.7200
377.1200
407.8400
377.1200
428.3200
474.4000
771.3600
1017.1200
110.8800
146.7200
325.9200
443.6800
412.9600
377.1200
387.3600
387.3600
397.6000
397.6000
428.3200
412.9600
443.6800
433.4400
474.4000
459.0400
494.8800
500.0000
535.8400
556.3200
607.5200
628.0000
679.2000
689.4400
735.5200
750.8800
766.2400
771.3600
750.8800
730.4000
663.8400
597.2800
540.9600
500.0000
479.5200
453.9200
453.9200
459.0400
464.1600
474.4000
474.4000
474.4000
469.2800
459.0400
464.1600
464.1600
469.2800
474.4000
453.9200
459.0400
448.8000
443.6800
428.3200
428.3200
423.2000
433.4400
469.2800
530.7200
535.8400
566.5600
612.6400
602.4000
576.8000
500.0000
494.8800
423.2000
387.3600
392.4800
392.4800
382.2400
387.3600
397.6000
366.8800
418.0800
551.2000
791.8400
515.3600
80.1600
213.2800
356.6400
423.2000
392.4800
392.4800
392.4800
387.3600
397.6000
402.7200
428.3200
428.3200
433.4400
448.8000
469.2800
484.6400
505.1200
510.2400
556.3200
571.6800
628.0000
653.6000
684.3200
715.0400
740.6400
771.3600
796.9600
786.7200
771.3600
720.1600
648.4800
592.1600
530.7200
494.8800
464.1600
459.0400
469.2800
464.1600
459.0400
474.4000
464.1600
474.4000
489.7600
479.5200
474.4000
489.7600
459.0400
474.4000
469.2800
459.0400
448.8000
453.9200
443.6800
433.4400
459.0400
540.9600
546.0800
597.2800
576.8000
622.8800
607.5200
540.9600
500.0000
479.5200
392.4800
418.0800
397.6000
412.9600
377.1200
402.7200
377.1200
453.9200
469.2800
694.5600
950.5600
116.0000
177.4400
295.2000
387.3600
402.7200
392.4800
407.8400
392.4800
423.2000
397.6000
412.9600
423.2000
459.0400
469.2800
459.0400
474.4000
515.3600
520.4800
566.5600
556.3200
612.6400
643.3600
704.8000
740.6400
740.6400
750.8800
807.2000
802.0800
796.9600
756.0000
684.3200
587.0400
561.4400
510.2400
484.6400
469.2800
459.0400
474.4000
474.4000
469.2800
459.0400
489.7600
484.6400
479.5200
469.2800
469.2800
448.8000
474.4000
469.2800
443.6800
433.4400
453.9200
433.4400
443.6800
448.8000
489.7600
535.8400
566.5600
551.2000
622.8800
587.0400
551.2000
479.5200
489.7600
418.0800
382.2400
361.7600
397.6000
356.6400
397.6000
366.8800
423.2000
443.6800
709.9200
1073.4400
203.0400
146.7200
274.7200
366.8800
402.7200
392.4800
392.4800
372.0000
412.9600
402.7200
428.3200
423.2000
443.6800
453.9200
474.4000
464.1600
505.1200
500.0000
546.0800
556.3200
587.0400
633.1200
663.8400
709.9200
745.7600
750.8800
771.3600
786.7200
786.7200
750.8800
694.5600
622.8800
566.5600
505.1200
500.0000
479.5200
459.0400
459.0400
489.7600
479.5200
479.5200
479.5200
474.4000
479.5200
484.6400
479.5200
479.5200
464.1600
469.2800
453.9200
459.0400
448.8000
433.4400
433.4400
433.4400
469.2800
540.9600
556.3200
571.6800
612.6400
607.5200
581.9200
510.2400
510.2400
433.4400
397.6000
392.4800
382.2400
412.9600
387.3600
402.7200
387.3600
438.5600
581.9200
837.9200
566.5600
116.0000
244.0000
382.2400
438.5600
407.8400
402.7200
402.7200
402.7200
407.8400
412.9600
412.9600
428.3200
443.6800
453.9200
479.5200
494.8800
510.2400
530.7200
561.4400
581.9200
612.6400
663.8400
699.6800
720.1600
756.0000
766.2400
781.6000
786.7200
761.1200
709.9200
648.4800
581.9200
525.6000
494.8800
479.5200
469.2800
448.8000
453.9200
469.2800
464.1600
469.2800
474.4000
484.6400
479.5200
469.2800
459.0400
459.0400
464.1600
453.9200
448.8000
443.6800
443.6800
448.8000
453.9200
484.6400
551.2000
566.5600
571.6800
607.5200
597.2800
592.1600
510.2400
505.1200
433.4400
397.6000
397.6000
387.3600
387.3600
392.4800
402.7200
397.6000
433.4400
566.5600
807.2000
494.8800
95.5200
233.7600
356.6400
418.0800
407.8400
387.3600
397.6000
407.8400
418.0800
418.0800
423.2000
428.3200
443.6800
464.1600
474.4000
500.0000
510.2400
540.9600
561.4400
592.1600
622.8800
658.7200
720.1600
730.4000
766.2400
771.3600
802.0800
796.9600
771.3600
730.4000
653.6000
587.0400
515.3600
494.8800
474.4000
459.0400
474.4000
474.4000
464.1600
469.2800
464.1600
474.4000
474.4000
469.2800
479.5200
459.0400
469.2800
448.8000
453.9200
433.4400
464.1600
438.5600
443.6800
469.2800
546.0800
546.0800
551.2000
607.5200
607.5200
597.2800
500.0000
500.0000
418.0800
387.3600
392.4800
387.3600
366.8800
382.2400
402.7200
392.4800
443.6800
587.0400
858.4000
566.5600
100.6400
218.4000
346.4000
377.1200
387.3600
387.3600
407.8400
407.8400
397.6000
407.8400
433.4400
418.0800
443.6800
453.9200
474.4000
484.6400
510.2400
520.4800
546.0800
597.2800
612.6400
648.4800
694.5600
735.5200
740.6400
771.3600
786.7200
786.7200
786.7200
709.9200
653.6000
571.6800
505.1200
484.6400
474.4000
464.1600
464.1600
453.9200
464.1600
459.0400
474.4000
479.5200
474.4000
464.1600
464.1600
464.1600
464.1600
453.9200
459.0400
443.6800
459.0400
443.6800
448.8000
474.4000
535.8400
551.2000
576.8000
592.1600
628.0000
597.2800
520.4800
500.0000
474.4000
402.7200
402.7200
382.2400
397.6000
382.2400
397.6000
387.3600
438.5600
520.4800
796.9600
863.5200
110.8800
182.5600
331.0400
423.2000
402.7200
392.4800
402.7200
387.3600
407.8400
397.6000
423.2000
423.2000
443.6800
433.4400
464.1600
469.2800
505.1200
515.3600
561.4400
581.9200
612.6400
648.4800
694.5600
709.9200
745.7600
756.0000
776.4800
781.6000
771.3600
715.0400
653.6000
581.9200
530.7200
494.8800
469.2800
453.9200
464.1600
469.2800
479.5200
464.1600
464.1600
479.5200
484.6400
469.2800
474.4000
474.4000
474.4000
464.1600
459.0400
448.8000
453.9200
438.5600
438.5600
448.8000
510.2400
535.8400
561.4400
561.4400
628.0000
592.1600
566.5600
494.8800
494.8800
412.9600
387.3600
377.1200
402.7200
387.3600
392.4800
372.0000
423.2000
423.2000
679.2000
950.5600
49.4400
64.8000
274.7200
407.8400
407.8400
377.1200
392.4800
377.1200
407.8400
397.6000
418.0800
412.9600
438.5600
433.4400
459.0400
469.2800
489.7600
505.1200
525.6000
551.2000
602.4000
628.0000
684.3200
709.9200
745.7600
756.0000
781.6000
791.8400
776.4800
735.5200
674.0800
602.4000
546.0800
500.0000
479.5200
464.1600
448.8000
459.0400
443.6800
453.9200
453.9200
459.0400
464.1600
459.0400
459.0400
459.0400
448.8000
464.1600
459.0400
453.9200
433.4400
438.5600
423.2000
433.4400
448.8000
530.7200
535.8400
561.4400
571.6800
617.7600
587.0400
515.3600
479.5200
443.6800
382.2400
397.6000
387.3600
397.6000
382.2400
387.3600
372.0000
443.6800
479.5200
709.9200
843.0400
39.2000
121.1200
290.0800
407.8400
397.6000
382.2400
407.8400
377.1200
397.6000
397.6000
433.4400
418.0800
459.0400
448.8000
469.2800
464.1600
500.0000
525.6000
556.3200
576.8000
602.4000
643.3600
709.9200
709.9200
745.7600
786.7200
796.9600
807.2000
786.7200
735.5200
658.7200
587.0400
535.8400
484.6400
469.2800
459.0400
438.5600
438.5600
443.6800
459.0400
469.2800
459.0400
459.0400
448.8000
448.8000
453.9200
448.8000
453.9200
459.0400
438.5600
448.8000
418.0800
433.4400
443.6800
489.7600
535.8400
546.0800
540.9600
622.8800
581.9200
546.0800
484.6400
484.6400
397.6000
397.6000
361.7600
382.2400
382.2400
377.1200
387.3600
402.7200
418.0800
597.2800
955.6800
315.6800
116.0000
218.4000
310.5600
382.2400
372.0000
387.3600
377.1200
387.3600
397.6000
418.0800
407.8400
453.9200
433.4400
469.2800
453.9200
494.8800
515.3600
510.2400
566.5600
597.2800
622.8800
658.7200
699.6800
750.8800
771.3600
796.9600
791.8400
807.2000
771.3600
694.5600
643.3600
561.4400
489.7600
474.4000
469.2800
453.9200
433.4400
453.9200
474.4000
464.1600
453.9200
453.9200
469.2800
469.2800
469.2800
464.1600
464.1600
459.0400
448.8000
453.9200
453.9200
448.8000
438.5600
443.6800
484.6400
546.0800
551.2000
556.3200
617.7600
597.2800
566.5600
500.0000
494.8800
428.3200
392.4800
382.2400
392.4800
387.3600
382.2400
382.2400
392.4800
433.4400
633.1200
981.2800
443.6800
126.2400
244.0000
356.6400
412.9600
402.7200
397.6000
397.6000
418.0800
418.0800
412.9600
428.3200
443.6800
433.4400
453.9200
474.4000
489.7600
505.1200
540.9600
561.4400
602.4000
622.8800
668.9600
699.6800
745.7600
761.1200
781.6000
786.7200
802.0800
766.2400
699.6800
628.0000
561.4400
510.2400
474.4000
459.0400
453.9200
453.9200
448.8000
459.0400
453.9200
469.2800
474.4000
474.4000
474.4000
469.2800
464.1600
474.4000
474.4000
464.1600
448.8000
459.0400
448.8000
448.8000
438.5600
428.3200
459.0400
540.9600
535.8400
566.5600
576.8000
612.6400
592.1600
525.6000
494.8800
469.2800
382.2400
397.6000
387.3600
412.9600
392.4800
412.9600
382.2400
448.8000
474.4000
715.0400
817.4400
3.3600
116.0000
325.9200
438.5600
412.9600
387.3600
423.2000
407.8400
423.2000
412.9600
428.3200
428.3200
448.8000
453.9200
474.4000
484.6400
505.1200
520.4800
556.3200
566.5600
622.8800
658.7200
699.6800
730.4000
771.3600
791.8400
807.2000
807.2000
796.9600
750.8800
674.0800
607.5200
546.0800
500.0000
474.4000
459.0400
453.9200
448.8000
459.0400
459.0400
464.1600
469.2800
464.1600
469.2800
464.1600
469.2800
459.0400
464.1600
459.0400
448.8000
438.5600
438.5600
433.4400
448.8000
428.3200
433.4400
459.0400
530.7200
520.4800
556.3200
561.4400
592.1600
576.8000
500.0000
474.4000
433.4400
372.0000
402.7200
372.0000
392.4800
356.6400
397.6000
377.1200
423.2000
459.0400
699.6800
827.6800
23.8400
110.8800
279.8400
382.2400
387.3600
392.4800
387.3600
372.0000
397.6000
382.2400
423.2000
418.0800
433.4400
438.5600
474.4000
469.2800
510.2400
500.0000
551.2000
571.6800
617.7600
643.3600
699.6800
740.6400
781.6000
781.6000
807.2000
807.2000
812.3200
756.0000
689.4400
592.1600
535.8400
515.3600
484.6400
464.1600
448.8000
464.1600
469.2800
464.1600
453.9200
474.4000
469.2800
474.4000
500.0000
469.2800
479.5200
479.5200
464.1600
459.0400
479.5200
459.0400
459.0400
453.9200
453.9200
448.8000
505.1200
566.5600
566.5600
566.5600
638.2400
612.6400
576.8000
515.3600
489.7600
428.3200
412.9600
377.1200
407.8400
402.7200
418.0800
387.3600
412.9600
428.3200
602.4000
976.1600
361.7600
121.1200
223.5200
300.3200
377.1200
392.4800
402.7200
392.4800
412.9600
397.6000
407.8400
423.2000
438.5600
433.4400
459.0400
479.5200
500.0000
500.0000
525.6000
566.5600
597.2800
633.1200
674.0800
715.0400
761.1200
771.3600
817.4400
817.4400
843.0400
802.0800
725.2800
648.4800
581.9200
525.6000
500.0000
484.6400
438.5600
453.9200
453.9200
464.1600
459.0400
489.7600
484.6400
479.5200
484.6400
489.7600
469.2800
474.4000
464.1600
479.5200
453.9200
464.1600
459.0400
459.0400
443.6800
448.8000
448.8000
510.2400
546.0800
561.4400
556.3200
633.1200
602.4000
556.3200
494.8800
500.0000
397.6000
392.4800
392.4800
392.4800
361.7600
412.9600
387.3600
397.6000
407.8400
653.6000
1037.6000
238.8800
105.7600
254.2400
361.7600
397.6000
387.3600
392.4800
382.2400
407.8400
392.4800
412.9600
412.9600
433.4400
433.4400
459.0400
453.9200
494.8800
500.0000
520.4800
556.3200
607.5200
612.6400
674.0800
709.9200
745.7600
776.4800
776.4800
786.7200
802.0800
761.1200
699.6800
628.0000
561.4400
510.2400
484.6400
448.8000
453.9200
453.9200
453.9200
459.0400
453.9200
453.9200
474.4000
474.4000
474.4000
464.1600
469.2800
469.2800
469.2800
459.0400
448.8000
453.9200
448.8000
453.9200
438.5600
438.5600
443.6800
448.8000
510.2400
540.9600
556.3200
566.5600
633.1200
597.2800
551.2000
500.0000
500.0000
418.0800
397.6000
387.3600
402.7200
387.3600
402.7200
387.3600
397.6000
397.6000
643.3600
960.8000
182.5600
54.5600
223.5200
361.7600
428.3200
392.4800
407.8400
392.4800
412.9600
397.6000
423.2000
433.4400
433.4400
448.8000
469.2800
474.4000
500.0000
500.0000
546.0800
561.4400
607.5200
622.8800
684.3200
720.1600
756.0000
776.4800
791.8400
817.4400
817.4400
786.7200
730.4000
653.6000
571.6800
515.3600
494.8800
474.4000
459.0400
448.8000
459.0400
453.9200
459.0400
469.2800
474.4000
479.5200
474.4000
479.5200
489.7600
479.5200
464.1600
479.5200
459.0400
459.0400
464.1600
464.1600
443.6800
459.0400
438.5600
453.9200
484.6400
540.9600
556.3200
581.9200
602.4000
612.6400
576.8000
515.3600
494.8800
448.8000
382.2400
412.9600
397.6000
407.8400
402.7200
412.9600
392.4800
433.4400
505.1200
791.8400
766.2400
54.5600
151.8400
295.2000
397.6000
423.2000
397.6000
412.9600
402.7200
433.4400
407.8400
443.6800
433.4400
453.9200
459.0400
474.4000
494.8800
515.3600
505.1200
556.3200
587.0400
638.2400
648.4800
684.3200
725.2800
776.4800
796.9600
822.5600
827.6800
807.2000
750.8800
679.2000
617.7600
551.2000
505.1200
464.1600
443.6800
469.2800
469.2800
459.0400
453.9200
448.8000
469.2800
469.2800
479.5200
484.6400
484.6400
464.1600
459.0400
464.1600
459.0400
438.5600
464.1600
433.4400
438.5600
428.3200
433.4400
453.9200
556.3200
525.6000
551.2000
576.8000
638.2400
592.1600
500.0000
484.6400
453.9200
387.3600
397.6000
387.3600
412.9600
382.2400
402.7200
387.3600
443.6800
510.2400
812.3200
914.7200
75.0400
172.3200
284.9600
387.3600
402.7200
387.3600
418.0800
366.8800
412.9600
418.0800
428.3200
428.3200
428.3200
448.8000
484.6400
464.1600
500.0000
510.2400
566.5600
576.8000
617.7600
643.3600
679.2000
725.2800
786.7200
807.2000
827.6800
848.1600
812.3200
771.3600
709.9200
633.1200
546.0800
505.1200
505.1200
464.1600
453.9200
464.1600
448.8000
464.1600
474.4000
474.4000
484.6400
479.5200
479.5200
489.7600
479.5200
469.2800
469.2800
459.0400
453.9200
474.4000
459.0400
448.8000
448.8000
443.6800
459.0400
551.2000
551.2000
587.0400
571.6800
628.0000
612.6400
546.0800
500.0000
484.6400
402.7200
407.8400
412.9600
407.8400
397.6000
418.0800
382.2400
433.4400
464.1600
791.8400
1037.6000
80.1600
146.7200
331.0400
423.2000
428.3200
392.4800
407.8400
402.7200
423.2000
402.7200
443.6800
428.3200
459.0400
438.5600
469.2800
464.1600
500.0000
505.1200
561.4400
566.5600
612.6400
633.1200
679.2000
720.1600
766.2400
781.6000
802.0800
807.2000
802.0800
761.1200
694.5600
617.7600
546.0800
510.2400
489.7600
479.5200
464.1600
459.0400
453.9200
459.0400
453.9200
479.5200
474.4000
479.5200
479.5200
479.5200
479.5200
474.4000
459.0400
453.9200
443.6800
453.9200
448.8000
448.8000
443.6800
448.8000
448.8000
505.1200
546.0800
551.2000
556.3200
628.0000
592.1600
551.2000
500.0000
500.0000
397.6000
402.7200
382.2400
402.7200
382.2400
407.8400
382.2400
397.6000
397.6000
648.4800
950.5600
105.7600
23.8400
218.4000
366.8800
412.9600
392.4800
397.6000
387.3600
412.9600
397.6000
412.9600
407.8400
443.6800
433.4400
448.8000
464.1600
500.0000
500.0000
530.7200
551.2000
592.1600
617.7600
684.3200
715.0400
740.6400
771.3600
812.3200
822.5600
807.2000
781.6000
725.2800
643.3600
566.5600
530.7200
479.5200
464.1600
464.1600
464.1600
443.6800
448.8000
448.8000
453.9200
474.4000
459.0400
474.4000
479.5200
479.5200
464.1600
464.1600
448.8000
469.2800
443.6800
438.5600
438.5600
453.9200
448.8000
505.1200
530.7200
566.5600
576.8000
628.0000
587.0400
530.7200
474.4000
474.4000
382.2400
397.6000
382.2400
392.4800
361.7600
412.9600
377.1200
433.4400
423.2000
668.9600
1027.3600
136.4800
90.4000
218.4000
356.6400
402.7200
397.6000
392.4800
372.0000
407.8400
412.9600
443.6800
433.4400
412.9600
438.5600
469.2800
469.2800
494.8800
515.3600
540.9600
556.3200
602.4000
648.4800
699.6800
709.9200
781.6000
786.7200
827.6800
827.6800
827.6800
776.4800
709.9200
628.0000
571.6800
500.0000
489.7600
469.2800
464.1600
453.9200
469.2800
469.2800
464.1600
453.9200
459.0400
469.2800
484.6400
464.1600
448.8000
453.9200
474.4000
453.9200
433.4400
428.3200
448.8000
448.8000
423.2000
443.6800
530.7200
530.7200
556.3200
587.0400
607.5200
587.0400
500.0000
489.7600
448.8000
387.3600
387.3600
377.1200
397.6000
392.4800
387.3600
356.6400
443.6800
540.9600
868.6400
863.5200
105.7600
162.0800
305.4400
412.9600
418.0800
382.2400
387.3600
397.6000
412.9600
382.2400
418.0800
428.3200
453.9200
423.2000
464.1600
469.2800
505.1200
500.0000
540.9600
571.6800
597.2800
643.3600
679.2000
704.8000
756.0000
786.7200
817.4400
827.6800
791.8400
740.6400
658.7200
597.2800
551.2000
505.1200
484.6400
443.6800
438.5600
448.8000
453.9200
459.0400
489.7600
459.0400
464.1600
479.5200
448.8000
469.2800
464.1600
459.0400
443.6800
464.1600
448.8000
459.0400
433.4400
448.8000
438.5600
515.3600
556.3200
581.9200
571.6800
633.1200
592.1600
556.3200
500.0000
484.6400
397.6000
392.4800
377.1200
402.7200
392.4800
407.8400
387.3600
418.0800
448.8000
745.7600
1063.2000
95.5200
80.1600
310.5600
433.4400
423.2000
402.7200
402.7200
392.4800
418.0800
407.8400
448.8000
428.3200
453.9200
443.6800
474.4000
474.4000
489.7600
500.0000
546.0800
566.5600
612.6400
628.0000
689.4400
715.0400
750.8800
761.1200
796.9600
802.0800
802.0800
761.1200
684.3200
617.7600
561.4400
500.0000
479.5200
459.0400
459.0400
453.9200
448.8000
459.0400
448.8000
453.9200
459.0400
464.1600
459.0400
464.1600
459.0400
459.0400
453.9200
448.8000
438.5600
428.3200
423.2000
433.4400
423.2000
433.4400
453.9200
530.7200
515.3600
561.4400
576.8000
592.1600
571.6800
510.2400
489.7600
443.6800
382.2400
392.4800
366.8800
382.2400
372.0000
392.4800
356.6400
423.2000
474.4000
720.1600
745.7600
-6.8800
95.5200
295.2000
412.9600
397.6000
377.1200
402.7200
397.6000
407.8400
387.3600
438.5600
423.2000
438.5600
438.5600
459.0400
494.8800
510.2400
510.2400
546.0800
561.4400
602.4000
653.6000
689.4400
730.4000
771.3600
771.3600
786.7200
796.9600
822.5600
745.7600
674.0800
592.1600
520.4800
489.7600
459.0400
448.8000
459.0400
453.9200
443.6800
443.6800
428.3200
443.6800
464.1600
484.6400
479.5200
443.6800
443.6800
464.1600
443.6800
474.4000
428.3200
438.5600
433.4400
423.2000
433.4400
515.3600
530.7200
540.9600
530.7200
617.7600
571.6800
556.3200
464.1600
464.1600
387.3600
387.3600
372.0000
377.1200
372.0000
387.3600
377.1200
397.6000
418.0800
638.2400
1017.1200
228.6400
90.4000
228.6400
315.6800
387.3600
412.9600
382.2400
392.4800
412.9600
397.6000
428.3200
407.8400
443.6800
438.5600
464.1600
479.5200
464.1600
505.1200
546.0800
566.5600
587.0400
612.6400
658.7200
709.9200
766.2400
771.3600
791.8400
817.4400
822.5600
791.8400
725.2800
628.0000
581.9200
520.4800
479.5200
438.5600
484.6400
438.5600
453.9200
459.0400
438.5600
479.5200
448.8000
438.5600
469.2800
469.2800
474.4000
459.0400
453.9200
428.3200
469.2800
453.9200
433.4400
423.2000
443.6800
464.1600
530.7200
540.9600
561.4400
581.9200
628.0000
597.2800
525.6000
494.8800
459.0400
397.6000
412.9600
372.0000
402.7200
382.2400
392.4800
377.1200
428.3200
474.4000
832.8000
1052.9600
95.5200
156.9600
310.5600
418.0800
412.9600
387.3600
418.0800
387.3600
407.8400
407.8400
438.5600
428.3200
448.8000
453.9200
474.4000
484.6400
505.1200
515.3600
530.7200
566.5600
617.7600
638.2400
699.6800
709.9200
761.1200
781.6000
812.3200
807.2000
812.3200
756.0000
679.2000
617.7600
551.2000
500.0000
484.6400
469.2800
474.4000
459.0400
464.1600
459.0400
453.9200
464.1600
479.5200
494.8800
479.5200
469.2800
469.2800
469.2800
453.9200
469.2800
438.5600
474.4000
448.8000
448.8000
443.6800
520.4800
556.3200
571.6800
571.6800
628.0000
612.6400
556.3200
500.0000
500.0000
412.9600
397.6000
387.3600
397.6000
377.1200
407.8400
382.2400
397.6000
412.9600
679.2000
1006.8800
126.2400
75.0400
254.2400
397.6000
423.2000
407.8400
412.9600
382.2400
423.2000
402.7200
433.4400
428.3200
448.8000
438.5600
469.2800
469.2800
500.0000
505.1200
540.9600
561.4400
612.6400
633.1200
684.3200
709.9200
756.0000
771.3600
791.8400
812.3200
812.3200
776.4800
704.8000
633.1200
587.0400
525.6000
494.8800
474.4000
469.2800
459.0400
474.4000
469.2800
479.5200
474.4000
479.5200
453.9200
474.4000
474.4000
474.4000
459.0400
464.1600
453.9200
448.8000
448.8000
453.9200
443.6800
428.3200
489.7600
546.0800
540.9600
551.2000
602.4000
592.1600
566.5600
500.0000
484.6400
418.0800
351.5200
361.7600
377.1200
372.0000
361.7600
397.6000
402.7200
407.8400
551.2000
817.4400
556.3200
64.8000
156.9600
300.3200
418.0800
372.0000
387.3600
397.6000
392.4800
397.6000
407.8400
407.8400
428.3200
448.8000
448.8000
469.2800
464.1600
489.7600
515.3600
535.8400
581.9200
607.5200
612.6400
679.2000
740.6400
740.6400
771.3600
791.8400
776.4800
786.7200
725.2800
668.9600
571.6800
515.3600
479.5200
433.4400
433.4400
438.5600
423.2000
433.4400
443.6800
433.4400
448.8000
459.0400
448.8000
443.6800
453.9200
433.4400
418.0800
453.9200
418.0800
438.5600
428.3200
428.3200
418.0800
500.0000
510.2400
551.2000
546.0800
602.4000
571.6800
530.7200
459.0400
464.1600
377.1200
397.6000
387.3600
397.6000
351.5200
377.1200
382.2400
402.7200
428.3200
694.5600
1058.0800
141.6000
110.8800
254.2400
356.6400
382.2400
366.8800
407.8400
407.8400
407.8400
392.4800
448.8000
423.2000
474.4000
438.5600
469.2800
469.2800
505.1200
525.6000
566.5600
561.4400
597.2800
612.6400
679.2000
704.8000
750.8800
771.3600
781.6000
796.9600
786.7200
745.7600
684.3200
612.6400
581.9200
551.2000
469.2800
443.6800
448.8000
474.4000
469.2800
438.5600
459.0400
453.9200
453.9200
459.0400
479.5200
428.3200
448.8000
448.8000
464.1600
423.2000
438.5600
433.4400
418.0800
418.0800
443.6800
448.8000
546.0800
535.8400
561.4400
587.0400
617.7600
587.0400
510.2400
489.7600
443.6800
372.0000
392.4800
366.8800
397.6000
392.4800
387.3600
387.3600
443.6800
535.8400
848.1600
837.9200
64.8000
156.9600
331.0400
412.9600
402.7200
382.2400
392.4800
397.6000
418.0800
387.3600
418.0800
402.7200
438.5600
448.8000
464.1600
443.6800
500.0000
505.1200
535.8400
551.2000
602.4000
638.2400
658.7200
704.8000
750.8800
781.6000
791.8400
791.8400
781.6000
730.4000
663.8400
602.4000
540.9600
500.0000
479.5200
453.9200
443.6800
443.6800
438.5600
448.8000
438.5600
448.8000
464.1600
453.9200
453.9200
464.1600
443.6800
448.8000
438.5600
433.4400
428.3200
443.6800
428.3200
438.5600
448.8000
515.3600
546.0800
566.5600
561.4400
617.7600
576.8000
546.0800
489.7600
500.0000
407.8400
392.4800
377.1200
392.4800
372.0000
397.6000
377.1200
392.4800
412.9600
663.8400
991.5200
208.1600
85.2800
244.0000
392.4800
407.8400
397.6000
407.8400
392.4800
418.0800
402.7200
428.3200
423.2000
443.6800
443.6800
469.2800
469.2800
494.8800
500.0000
535.8400
556.3200
602.4000
638.2400
674.0800
689.4400
750.8800
756.0000
771.3600
796.9600
802.0800
756.0000
709.9200
628.0000
576.8000
525.6000
484.6400
474.4000
459.0400
453.9200
438.5600
464.1600
469.2800
474.4000
479.5200
469.2800
464.1600
459.0400
453.9200
469.2800
464.1600
459.0400
453.9200
438.5600
443.6800
459.0400
453.9200
530.7200
525.6000
576.8000
581.9200
622.8800
597.2800
540.9600
494.8800
469.2800
392.4800
418.0800
377.1200
412.9600
356.6400
423.2000
387.3600
459.0400
453.9200
709.9200
1012.0000
85.2800
121.1200
264.4800
377.1200
392.4800
397.6000
402.7200
392.4800
402.7200
392.4800
433.4400
428.3200
428.3200
453.9200
489.7600
464.1600
494.8800
505.1200
535.8400
576.8000
592.1600
643.3600
679.2000
689.4400
745.7600
791.8400
822.5600
786.7200
796.9600
776.4800
704.8000
602.4000
561.4400
479.5200
494.8800
469.2800
469.2800
433.4400
469.2800
459.0400
448.8000
469.2800
479.5200
453.9200
464.1600
459.0400
484.6400
469.2800
453.9200
443.6800
453.9200
438.5600
459.0400
448.8000
500.0000
530.7200
561.4400
566.5600
648.4800
617.7600
566.5600
500.0000
500.0000
448.8000
382.2400
382.2400
387.3600
387.3600
397.6000
392.4800
412.9600
407.8400
730.4000
1104.1600
310.5600
110.8800
284.9600
392.4800
428.3200
397.6000
407.8400
392.4800
418.0800
407.8400
433.4400
418.0800
423.2000
438.5600
474.4000
469.2800
500.0000
505.1200
535.8400
546.0800
561.4400
617.7600
663.8400
684.3200
735.5200
766.2400
781.6000
791.8400
791.8400
766.2400
684.3200
633.1200
576.8000
525.6000
474.4000
459.0400
459.0400
453.9200
469.2800
464.1600
453.9200
469.2800
459.0400
464.1600
469.2800
484.6400
469.2800
453.9200
448.8000
443.6800
443.6800
438.5600
448.8000
443.6800
459.0400
535.8400
546.0800
571.6800
607.5200
612.6400
607.5200
505.1200
500.0000
459.0400
392.4800
402.7200
412.9600
407.8400
392.4800
402.7200
392.4800
459.0400
607.5200
899.3600
689.4400
44.3200
182.5600
372.0000
443.6800
402.7200
382.2400
407.8400
402.7200
412.9600
407.8400
428.3200
418.0800
433.4400
433.4400
469.2800
474.4000
500.0000
520.4800
551.2000
576.8000
612.6400
653.6000
679.2000
720.1600
756.0000
771.3600
786.7200
786.7200
766.2400
720.1600
653.6000
592.1600
546.0800
520.4800
479.5200
474.4000
469.2800
453.9200
464.1600
474.4000
479.5200
474.4000
484.6400
474.4000
479.5200
474.4000
469.2800
464.1600
464.1600
459.0400
448.8000
443.6800
448.8000
438.5600
500.0000
546.0800
556.3200
561.4400
622.8800
592.1600
566.5600
494.8800
500.0000
418.0800
387.3600
382.2400
382.2400
377.1200
392.4800
366.8800
392.4800
433.4400
628.0000
909.6000
305.4400
64.8000
223.5200
372.0000
418.0800
412.9600
392.4800
377.1200
392.4800
407.8400
418.0800
412.9600
433.4400
443.6800
453.9200
464.1600
494.8800
515.3600
520.4800
566.5600
587.0400
597.2800
674.0800
715.0400
720.1600
735.5200
776.4800
791.8400
796.9600
750.8800
704.8000
638.2400
576.8000
515.3600
500.0000
479.5200
459.0400
453.9200
464.1600
484.6400
489.7600
474.4000
464.1600
479.5200
464.1600
474.4000
474.4000
479.5200
453.9200
459.0400
443.6800
448.8000
448.8000
443.6800
474.4000
556.3200
540.9600
561.4400
612.6400
617.7600
571.6800
520.4800
505.1200
428.3200
382.2400
402.7200
402.7200
377.1200
377.1200
397.6000
392.4800
443.6800
602.4000
853.2800
607.5200
110.8800
203.0400
310.5600
423.2000
407.8400
392.4800
392.4800
387.3600
418.0800
438.5600
412.9600
443.6800
433.4400
423.2000
474.4000
505.1200
525.6000
515.3600
551.2000
566.5600
612.6400
643.3600
694.5600
720.1600
740.6400
771.3600
781.6000
781.6000
776.4800
720.1600
643.3600
592.1600
510.2400
489.7600
469.2800
464.1600
469.2800
453.9200
459.0400
469.2800
484.6400
459.0400
484.6400
484.6400
459.0400
474.4000
453.9200
459.0400
464.1600
443.6800
464.1600
443.6800
428.3200
464.1600
540.9600
546.0800
571.6800
597.2800
602.4000
576.8000
515.3600
494.8800
418.0800
382.2400
397.6000
372.0000
402.7200
397.6000
387.3600
377.1200
448.8000
622.8800
930.0800
725.2800
110.8800
208.1600
351.5200
397.6000
412.9600
382.2400
397.6000
377.1200
397.6000
407.8400
423.2000
423.2000
443.6800
474.4000
464.1600
484.6400
505.1200
540.9600
540.9600
587.0400
617.7600
668.9600
709.9200
730.4000
761.1200
766.2400
791.8400
812.3200
802.0800
725.2800
658.7200
597.2800
566.5600
500.0000
479.5200
474.4000
489.7600
469.2800
484.6400
474.4000
500.0000
469.2800
505.1200
494.8800
479.5200
469.2800
484.6400
464.1600
484.6400
474.4000
464.1600
448.8000
464.1600
479.5200
540.9600
561.4400
581.9200
602.4000
648.4800
612.6400
535.8400
500.0000
494.8800
433.4400
412.9600
387.3600
412.9600
387.3600
423.2000
392.4800
443.6800
515.3600
827.6800
965.9200
59.6800
146.7200
346.4000
443.6800
412.9600
392.4800
428.3200
397.6000
428.3200
418.0800
433.4400
433.4400
448.8000
453.9200
479.5200
484.6400
525.6000
520.4800
546.0800
581.9200
607.5200
643.3600
679.2000
709.9200
745.7600
766.2400
776.4800
771.3600
771.3600
735.5200
674.0800
612.6400
556.3200
515.3600
505.1200
500.0000
484.6400
489.7600
479.5200
479.5200
489.7600
489.7600
500.0000
479.5200
494.8800
474.4000
474.4000
459.0400
459.0400
459.0400
459.0400
448.8000
459.0400
459.0400
510.2400
546.0800
576.8000
556.3200
622.8800
581.9200
540.9600
479.5200
464.1600
356.6400
346.4000
336.1600
366.8800
382.2400
392.4800
361.7600
407.8400
428.3200
689.4400
981.2800
59.6800
80.1600
290.0800
392.4800
382.2400
387.3600
418.0800
397.6000
423.2000
397.6000
423.2000
423.2000
448.8000
443.6800
464.1600
459.0400
510.2400
525.6000
546.0800
556.3200
607.5200
622.8800
689.4400
720.1600
745.7600
730.4000
766.2400
771.3600
791.8400
750.8800
679.2000
628.0000
540.9600
489.7600
469.2800
474.4000
453.9200
479.5200
464.1600
464.1600
479.5200
474.4000
469.2800
479.5200
453.9200
479.5200
448.8000
459.0400
438.5600
479.5200
433.4400
418.0800
433.4400
510.2400
556.3200
556.3200
581.9200
622.8800
587.0400
556.3200
494.8800
494.8800
412.9600
366.8800
382.2400
402.7200
382.2400
402.7200
372.0000
402.7200
438.5600
735.5200
1063.2000
167.2000
121.1200
279.8400
377.1200
412.9600
392.4800
412.9600
392.4800
428.3200
387.3600
423.2000
443.6800
448.8000
443.6800
479.5200
474.4000
505.1200
520.4800
540.9600
561.4400
607.5200
617.7600
684.3200
709.9200
740.6400
756.0000
796.9600
786.7200
786.7200
750.8800
694.5600
638.2400
576.8000
510.2400
500.0000
469.2800
489.7600
474.4000
474.4000
474.4000
474.4000
500.0000
484.6400
469.2800
489.7600
474.4000
479.5200
474.4000
464.1600
453.9200
464.1600
428.3200
464.1600
479.5200
530.7200
546.0800
581.9200
587.0400
638.2400
602.4000
525.6000
500.0000
479.5200
402.7200
402.7200
392.4800
407.8400
382.2400
407.8400
377.1200
443.6800
510.2400
822.5600
1017.1200
95.5200
156.9600
336.1600
423.2000
407.8400
387.3600
418.0800
392.4800
402.7200
392.4800
438.5600
428.3200
438.5600
438.5600
479.5200
469.2800
500.0000
500.0000
546.0800
561.4400
602.4000
643.3600
668.9600
694.5600
730.4000
756.0000
771.3600
766.2400
756.0000
725.2800
653.6000
587.0400
551.2000
505.1200
489.7600
469.2800
484.6400
469.2800
453.9200
464.1600
474.4000
453.9200
479.5200
484.6400
494.8800
474.4000
469.2800
443.6800
453.9200
433.4400
453.9200
428.3200
443.6800
448.8000
510.2400
556.3200
566.5600
561.4400
617.7600
592.1600
551.2000
500.0000
489.7600
402.7200
402.7200
377.1200
392.4800
372.0000
397.6000
382.2400
428.3200
438.5600
730.4000
1006.8800
69.9200
90.4000
295.2000
402.7200
402.7200
387.3600
407.8400
402.7200
423.2000
397.6000
412.9600
407.8400
438.5600
438.5600
459.0400
464.1600
500.0000
510.2400
540.9600
566.5600
592.1600
607.5200
663.8400
689.4400
725.2800
725.2800
756.0000
761.1200
761.1200
725.2800
